2.000040008801936331e+00 5.199480430643286581e+02
2.000140030806777602e+00 5.200670437923821510e+02
2.000240052811618430e+00 5.201863704046023713e+02
2.000340074816459701e+00 5.203059730914295642e+02
2.000440096821300529e+00 5.204258020694153402e+02
2.000540118826141356e+00 5.205458076071921596e+02
2.000640140830982627e+00 5.206659400513472065e+02
2.000740162835823899e+00 5.207861498521947397e+02
2.000840184840664726e+00 5.209063875894241846e+02
2.000940206845505998e+00 5.210266039976182810e+02
2.001040228850347269e+00 5.211467499916199131e+02
2.001140250855187652e+00 5.212667766917397785e+02
2.001240272860028924e+00 5.213866354487867056e+02
2.001340294864870195e+00 5.215062778689130027e+02
2.001440316869711022e+00 5.216256558382536923e+02
2.001540338874552294e+00 5.217447215473540609e+02
2.001640360879393565e+00 5.218634275153663111e+02
2.001740382884234393e+00 5.219817266140081529e+02
2.001840404889075220e+00 5.220995720912640081e+02
2.001940426893916491e+00 5.222169175948257589e+02
2.002040448898757319e+00 5.223337171952464359e+02
2.002140470903598590e+00 5.224499254088120779e+02
2.002240492908439862e+00 5.225654972201059536e+02
2.002340514913280689e+00 5.226803881042584408e+02
2.002440536918121960e+00 5.227945540488725555e+02
2.002540558922962788e+00 5.229079515756119463e+02
2.002640580927804059e+00 5.230205377614387316e+02
2.002740602932644887e+00 5.231322702594954990e+02
2.002840624937486158e+00 5.232431073196138414e+02
2.002940646942326985e+00 5.233530078084428396e+02
2.003040668947168257e+00 5.234619312291915776e+02
2.003140690952009528e+00 5.235698377409643172e+02
2.003240712956850356e+00 5.236766881776900391e+02
2.003340734961691183e+00 5.237824440666324790e+02
2.003440756966532454e+00 5.238870676464696317e+02
2.003540778971373726e+00 5.239905218849356743e+02
2.003640800976214553e+00 5.240927704960188294e+02
2.003740822981055825e+00 5.241937779567019788e+02
2.003840844985896652e+00 5.242935095232437561e+02
2.003940866990737923e+00 5.243919312469870420e+02
2.004040888995578751e+00 5.244890099896882703e+02
2.004140911000420022e+00 5.245847134383679986e+02
2.004240933005260850e+00 5.246790101196611431e+02
2.004340955010102121e+00 5.247718694136757449e+02
2.004440977014943392e+00 5.248632615673438977e+02
2.004540999019784220e+00 5.249531577072608570e+02
2.004641021024625047e+00 5.250415298520111946e+02
2.004741043029466319e+00 5.251283509239699470e+02
2.004841065034307590e+00 5.252135947605796673e+02
2.004941087039148417e+00 5.252972361250921267e+02
2.005041109043989689e+00 5.253792507167790973e+02
2.005141131048830516e+00 5.254596151805999398e+02
2.005241153053671788e+00 5.255383071163242903e+02
2.005341175058512615e+00 5.256153050871108690e+02
2.005441197063353886e+00 5.256905886275328612e+02
2.005541219068194714e+00 5.257641382510535095e+02
2.005641241073035985e+00 5.258359354569410016e+02
2.005741263077877257e+00 5.259059627366293626e+02
2.005841285082718084e+00 5.259742035795205766e+02
2.005941307087559355e+00 5.260406424782194108e+02
2.006041329092400183e+00 5.261052649332134479e+02
2.006141351097241010e+00 5.261680574569854798e+02
2.006241373102082282e+00 5.262290075775611058e+02
2.006341395106923553e+00 5.262881038414971044e+02
2.006441417111764380e+00 5.263453358163005760e+02
2.006541439116605652e+00 5.264006940922877220e+02
2.006641461121446923e+00 5.264541702838799893e+02
2.006741483126287307e+00 5.265057570303366674e+02
2.006841505131128578e+00 5.265554479959292848e+02
2.006941527135969849e+00 5.266032378695559828e+02
2.007041549140810677e+00 5.266491223638008705e+02
2.007141571145651948e+00 5.266930982134369970e+02
2.007241593150493220e+00 5.267351631733812383e+02
2.007341615155334047e+00 5.267753160160958714e+02
2.007441637160174874e+00 5.268135565284513859e+02
2.007541659165016146e+00 5.268498855080392786e+02
2.007641681169856973e+00 5.268843047589559774e+02
2.007741703174698245e+00 5.269168170870466383e+02
2.007841725179539516e+00 5.269474262946200724e+02
2.007941747184380343e+00 5.269761371746456007e+02
2.008041769189221615e+00 5.270029555044209246e+02
2.008141791194062442e+00 5.270278880387332947e+02
2.008241813198903714e+00 5.270509425025099972e+02
2.008341835203744541e+00 5.270721275829642991e+02
2.008441857208585812e+00 5.270914529212478783e+02
2.008541879213426640e+00 5.271089291036100803e+02
2.008641901218267911e+00 5.271245676520766210e+02
2.008741923223109183e+00 5.271383810146502356e+02
2.008841945227950010e+00 5.271503825550406646e+02
2.008941967232790837e+00 5.271605865419384145e+02
2.009041989237632109e+00 5.271690081378247896e+02
2.009142011242473380e+00 5.271756633873441160e+02
2.009242033247314208e+00 5.271805692052338372e+02
2.009342055252155479e+00 5.271837433638240782e+02
2.009442077256996306e+00 5.271852044801207740e+02
2.009542099261837578e+00 5.271849720024669068e+02
2.009642121266678405e+00 5.271830661968115237e+02
2.009742143271519677e+00 5.271795081325748242e+02
2.009842165276360504e+00 5.271743196681352401e+02
2.009942187281201775e+00 5.271675234359353226e+02
2.010042209286043047e+00 5.271591428272271287e+02
2.010142231290883874e+00 5.271492019764584711e+02
2.010242253295724701e+00 5.271377257453161747e+02
2.010342275300565973e+00 5.271247397064306597e+02
2.010442297305407244e+00 5.271102701267591328e+02
2.010542319310248072e+00 5.270943439506531831e+02
2.010642341315089343e+00 5.270769887826228342e+02
2.010742363319930170e+00 5.270582328698060337e+02
2.010842385324771442e+00 5.270381050841617707e+02
2.010942407329612269e+00 5.270166349043859100e+02
2.011042429334453541e+00 5.269938523975723683e+02
2.011142451339294368e+00 5.269697882006256577e+02
2.011242473344135639e+00 5.269444735014349135e+02
2.011342495348976911e+00 5.269179400198255507e+02
2.011442517353817738e+00 5.268902199882950299e+02
2.011542539358659010e+00 5.268613461325485332e+02
2.011642561363499837e+00 5.268313516518456936e+02
2.011742583368340664e+00 5.268002701991658796e+02
2.011842605373181936e+00 5.267681358612127269e+02
2.011942627378023207e+00 5.267349831382581442e+02
2.012042649382864035e+00 5.267008469238494399e+02
2.012142671387705306e+00 5.266657624843841177e+02
2.012242693392546578e+00 5.266297654385673468e+02
2.012342715397386961e+00 5.265928917367612030e+02
2.012442737402228232e+00 5.265551776402461428e+02
2.012542759407069504e+00 5.265166597003905053e+02
2.012642781411910331e+00 5.264773747377637392e+02
2.012742803416751602e+00 5.264373598211798253e+02
2.012842825421592874e+00 5.263966522467012510e+02
2.012942847426433701e+00 5.263552895166122880e+02
2.013042869431274529e+00 5.263133093183637357e+02
2.013142891436115800e+00 5.262707495035142529e+02
2.013242913440956627e+00 5.262276480666737370e+02
2.013342935445797899e+00 5.261840431244586398e+02
2.013442957450639170e+00 5.261399728944757044e+02
2.013542979455479998e+00 5.260954756743435610e+02
2.013643001460320825e+00 5.260505898207661630e+02
2.013743023465162096e+00 5.260053537286637493e+02
2.013843045470003368e+00 5.259598058103823632e+02
2.013943067474844195e+00 5.259139844749823851e+02
2.014043089479685467e+00 5.258679281076306324e+02
2.014143111484526294e+00 5.258216750490903451e+02
2.014243133489367565e+00 5.257752635753390678e+02
2.014343155494208393e+00 5.257287318773102243e+02
2.014443177499049664e+00 5.256821180407761176e+02
2.014543199503890492e+00 5.256354600263859993e+02
2.014643221508731763e+00 5.255887956498615949e+02
2.014743243513573034e+00 5.255421625623655473e+02
2.014843265518413862e+00 5.254955982310582385e+02
2.014943287523255133e+00 5.254491399198408317e+02
2.015043309528095961e+00 5.254028246703051082e+02
2.015143331532937232e+00 5.253566892828961272e+02
2.015243353537778059e+00 5.253107702982983938e+02
2.015343375542619331e+00 5.252651039790522418e+02
2.015443397547460158e+00 5.252197262914152134e+02
2.015543419552301430e+00 5.251746728874703649e+02
2.015643441557142701e+00 5.251299790875000326e+02
2.015743463561983528e+00 5.250856798626231239e+02
2.015843485566824356e+00 5.250418098177141246e+02
2.015943507571665627e+00 5.249984031746039363e+02
2.016043529576506899e+00 5.249554937555802780e+02
2.016143551581347726e+00 5.249131149671857202e+02
2.016243573586188997e+00 5.248712997843251742e+02
2.016343595591029825e+00 5.248300807346956844e+02
2.016443617595870652e+00 5.247894898835381809e+02
2.016543639600711924e+00 5.247495588187184694e+02
2.016643661605553195e+00 5.247103186361542839e+02
2.016743683610394022e+00 5.246717999255779432e+02
2.016843705615235294e+00 5.246340327566628048e+02
2.016943727620076565e+00 5.245970466654954407e+02
2.017043749624917393e+00 5.245608706414238895e+02
2.017143771629758220e+00 5.245255331142652722e+02
2.017243793634599491e+00 5.244910619418964188e+02
2.017343815639440319e+00 5.244574843982195489e+02
2.017443837644281590e+00 5.244248271615173280e+02
2.017543859649122862e+00 5.243931163031959386e+02
2.017643881653963689e+00 5.243623772769213929e+02
2.017743903658804960e+00 5.243326349081594344e+02
2.017843925663645788e+00 5.243039133841114108e+02
2.017943947668486615e+00 5.242762362440632842e+02
2.018043969673327886e+00 5.242496263701387988e+02
2.018143991678169158e+00 5.242241059784677191e+02
2.018244013683009985e+00 5.241996966107722074e+02
2.018344035687851257e+00 5.241764191263673638e+02
2.018444057692692528e+00 5.241542936945847941e+02
2.018544079697533355e+00 5.241333397876178424e+02
2.018644101702374183e+00 5.241135761737959911e+02
2.018744123707215454e+00 5.240950209112760376e+02
2.018844145712056282e+00 5.240776913421723293e+02
2.018944167716897553e+00 5.240616040871055930e+02
2.019044189721738825e+00 5.240467750401883222e+02
2.019144211726579652e+00 5.240332193644344443e+02
2.019244233731420479e+00 5.240209514876048615e+02
2.019344255736261751e+00 5.240099850984752266e+02
2.019444277741103022e+00 5.240003331435445943e+02
2.019544299745943849e+00 5.239920078241607371e+02
2.019644321750785121e+00 5.239850205940862224e+02
2.019744343755625948e+00 5.239793821574789945e+02
2.019844365760467220e+00 5.239751024673132633e+02
2.019944387765308047e+00 5.239721907242125098e+02
2.020044409770149318e+00 5.239706553757146139e+02
2.020144431774990146e+00 5.239705041159515986e+02
2.020244453779831417e+00 5.239717438857499019e+02
2.020344475784672689e+00 5.239743808731500394e+02
2.020444497789513516e+00 5.239784205143313329e+02
2.020544519794354787e+00 5.239838674949569395e+02
2.020644541799195615e+00 5.239907257519170116e+02
2.020744563804036886e+00 5.239989984754816987e+02
2.020844585808877714e+00 5.240086881118497786e+02
2.020944607813718985e+00 5.240197963660961022e+02
2.021044629818559812e+00 5.240323242055077344e+02
2.021144651823401084e+00 5.240462718633114036e+02
2.021244673828242355e+00 5.240616388427804395e+02
2.021344695833083183e+00 5.240784239217207414e+02
2.021444717837924010e+00 5.240966251573310046e+02
2.021544739842765281e+00 5.241162398914287905e+02
2.021644761847606553e+00 5.241372647560409632e+02
2.021744783852447380e+00 5.241596956793495110e+02
2.021844805857288652e+00 5.241835278919907068e+02
2.021944827862129479e+00 5.242087559336956701e+02
2.022044849866970306e+00 5.242353736602755134e+02
2.022144871871811578e+00 5.242633742509319745e+02
2.022244893876652849e+00 5.242927502159036521e+02
2.022344915881493677e+00 5.243234934044215834e+02
2.022444937886334948e+00 5.243555950129876919e+02
2.022544959891176219e+00 5.243890455939514368e+02
2.022644981896017047e+00 5.244238350643880722e+02
2.022745003900857874e+00 5.244599527152720384e+02
2.022845025905699146e+00 5.244973872209271804e+02
2.022945047910539973e+00 5.245361266487606144e+02
2.023045069915381244e+00 5.245761584692626229e+02
2.023145091920222516e+00 5.246174695662657541e+02
2.023245113925063343e+00 5.246600462474634696e+02
2.023345135929904615e+00 5.247038742551679888e+02
2.023445157934745442e+00 5.247489387773073304e+02
2.023545179939586269e+00 5.247952244586549568e+02
2.023645201944427541e+00 5.248427154122750835e+02
2.023745223949268812e+00 5.248913952311838784e+02
2.023845245954109640e+00 5.249412470002141617e+02
2.023945267958950911e+00 5.249922533080743960e+02
2.024045289963792182e+00 5.250443962595950325e+02
2.024145311968633010e+00 5.250976574881533452e+02
2.024245333973473837e+00 5.251520181682706152e+02
2.024345355978315109e+00 5.252074590283627913e+02
2.024445377983155936e+00 5.252639603636496304e+02
2.024545399987997207e+00 5.253215020492058329e+02
2.024645421992838479e+00 5.253800635531426906e+02
2.024745443997679306e+00 5.254396239499179728e+02
2.024845466002520133e+00 5.255001619337629108e+02
2.024945488007361405e+00 5.255616558322133187e+02
2.025045510012202676e+00 5.256240836197398494e+02
2.025145532017043504e+00 5.256874229314703371e+02
2.025245554021884775e+00 5.257516510769885372e+02
2.025345576026725603e+00 5.258167450542059669e+02
2.025445598031566874e+00 5.258826815632971829e+02
2.025545620036407701e+00 5.259494370206866733e+02
2.025645642041248973e+00 5.260169875730779268e+02
2.025745664046089800e+00 5.260853091115261577e+02
2.025845686050931072e+00 5.261543772855285397e+02
2.025945708055772343e+00 5.262241675171369479e+02
2.026045730060613170e+00 5.262946550150787743e+02
2.026145752065454442e+00 5.263658147888805843e+02
2.026245774070295269e+00 5.264376216629769942e+02
2.026345796075136541e+00 5.265100502908103408e+02
2.026445818079977368e+00 5.265830751689015869e+02
2.026545840084818639e+00 5.266566706508842799e+02
2.026645862089659467e+00 5.267308109615016747e+02
2.026745884094500738e+00 5.268054702105505385e+02
2.026845906099342010e+00 5.268806224067648145e+02
2.026945928104182837e+00 5.269562414716361900e+02
2.027045950109023664e+00 5.270323012531562199e+02
2.027145972113864936e+00 5.271087755394780743e+02
2.027245994118706207e+00 5.271856380724848350e+02
2.027346016123547034e+00 5.272628625612649103e+02
2.027446038128388306e+00 5.273404226954730802e+02
2.027546060133229133e+00 5.274182921585885424e+02
2.027646082138069961e+00 5.274964446410438086e+02
2.027746104142911232e+00 5.275748538532291150e+02
2.027846126147752503e+00 5.276534935383630227e+02
2.027946148152593331e+00 5.277323374852197730e+02
2.028046170157434602e+00 5.278113595407090770e+02
2.028146192162275874e+00 5.278905336222999267e+02
2.028246214167116701e+00 5.279698337302822893e+02
2.028346236171957528e+00 5.280492339598624767e+02
2.028446258176798800e+00 5.281287085130836658e+02
2.028546280181639627e+00 5.282082317105659968e+02
2.028646302186480899e+00 5.282877780030626127e+02
2.028746324191322170e+00 5.283673219828192487e+02
2.028846346196162997e+00 5.284468383947428265e+02
2.028946368201004269e+00 5.285263021473646177e+02
2.029046390205845096e+00 5.286056883235946771e+02
2.029146412210685924e+00 5.286849721912672067e+02
2.029246434215527195e+00 5.287641292134647983e+02
2.029346456220368466e+00 5.288431350586236022e+02
2.029446478225209294e+00 5.289219656104112346e+02
2.029546500230050565e+00 5.290005969773731067e+02
2.029646522234891837e+00 5.290790055023468312e+02
2.029746544239732664e+00 5.291571677716343629e+02
2.029846566244573491e+00 5.292350606239357376e+02
2.029946588249414763e+00 5.293126611590344055e+02
2.030046610254255590e+00 5.293899467462349548e+02
2.030146632259096862e+00 5.294668950325509513e+02
2.030246654263938133e+00 5.295434839506328899e+02
2.030346676268778960e+00 5.296196917264430795e+02
2.030446698273619788e+00 5.296954968866702984e+02
2.030546720278461059e+00 5.297708782658787641e+02
2.030646742283302331e+00 5.298458150133965319e+02
2.030746764288143158e+00 5.299202865999353662e+02
2.030846786292984429e+00 5.299942728239452663e+02
2.030946808297825257e+00 5.300677538176962571e+02
2.031046830302666528e+00 5.301407100530917660e+02
2.031146852307507356e+00 5.302131223472104011e+02
2.031246874312348627e+00 5.302849718675749955e+02
2.031346896317189454e+00 5.303562401371463011e+02
2.031446918322030726e+00 5.304269090390457677e+02
2.031546940326871997e+00 5.304969608210049046e+02
2.031646962331712825e+00 5.305663780995361094e+02
2.031746984336553652e+00 5.306351438638332638e+02
2.031847006341394923e+00 5.307032414793989119e+02
2.031947028346236195e+00 5.307706546913957482e+02
2.032047050351077022e+00 5.308373676277286677e+02
2.032147072355918294e+00 5.309033648018516942e+02
2.032247094360759121e+00 5.309686311153088809e+02
2.032347116365600392e+00 5.310331518600005438e+02
2.032447138370441220e+00 5.310969127201888114e+02
2.032547160375282491e+00 5.311598997742285064e+02
2.032647182380123319e+00 5.312220994960422331e+02
2.032747204384964590e+00 5.312834987563267077e+02
2.032847226389805861e+00 5.313440848235012481e+02
2.032947248394646689e+00 5.314038453644019455e+02
2.033047270399487960e+00 5.314627684447128786e+02
2.033147292404328788e+00 5.315208425291523326e+02
2.033247314409169615e+00 5.315780564814043601e+02
2.033347336414010886e+00 5.316343995638059141e+02
2.033447358418852158e+00 5.316898614367912614e+02
2.033547380423692985e+00 5.317444321580910582e+02
2.033647402428534257e+00 5.317981021817034843e+02
2.033747424433375528e+00 5.318508623566208371e+02
2.033847446438215911e+00 5.319027039253408020e+02
2.033947468443057183e+00 5.319536185221370488e+02
2.034047490447898454e+00 5.320035981711212116e+02
2.034147512452739281e+00 5.320526352840805657e+02
2.034247534457580553e+00 5.321007226581037912e+02
2.034347556462421824e+00 5.321478534730010779e+02
2.034447578467262652e+00 5.321940212885185701e+02
2.034547600472103479e+00 5.322392200413512455e+02
2.034647622476944751e+00 5.322834440419663906e+02
2.034747644481785578e+00 5.323266879712356285e+02
2.034847666486626849e+00 5.323689468768786810e+02
2.034947688491468121e+00 5.324102161697343263e+02
2.035047710496308948e+00 5.324504916198538922e+02
2.035147732501150220e+00 5.324897693524231954e+02
2.035247754505991047e+00 5.325280458435286164e+02
2.035347776510832318e+00 5.325653179157579871e+02
2.035447798515673146e+00 5.326015827336534585e+02
2.035547820520514417e+00 5.326368377990137333e+02
2.035647842525355244e+00 5.326710809460623750e+02
2.035747864530196516e+00 5.327043103364719627e+02
2.035847886535037787e+00 5.327365244542656910e+02
2.035947908539878615e+00 5.327677221005940282e+02
2.036047930544719442e+00 5.327979023883900709e+02
2.036147952549560713e+00 5.328270647369188282e+02
2.036247974554401985e+00 5.328552088662180495e+02
2.036347996559242812e+00 5.328823347914382111e+02
2.036448018564084084e+00 5.329084428170939418e+02
2.036548040568924911e+00 5.329335335312222242e+02
2.036648062573766182e+00 5.329576077994647676e+02
2.036748084578607010e+00 5.329806667590706866e+02
2.036848106583448281e+00 5.330027118128350594e+02
2.036948128588289109e+00 5.330237446229724583e+02
2.037048150593130380e+00 5.330437671049313622e+02
2.037148172597971651e+00 5.330627814211657096e+02
2.037248194602812479e+00 5.330807899748534737e+02
2.037348216607653306e+00 5.330977954035853372e+02
2.037448238612494578e+00 5.331138005730135774e+02
2.037548260617335849e+00 5.331288085704852620e+02
2.037648282622176676e+00 5.331428226986437267e+02
2.037748304627017948e+00 5.331558464690281198e+02
2.037848326631858775e+00 5.331678835956565763e+02
2.037948348636700047e+00 5.331789379886137112e+02
2.038048370641540874e+00 5.331890137476389100e+02
2.038148392646382145e+00 5.331981151557264411e+02
2.038248414651222973e+00 5.332062466727408037e+02
2.038348436656064244e+00 5.332134129290551527e+02
2.038448458660905516e+00 5.332196187192161005e+02
2.038548480665746343e+00 5.332248689956417138e+02
2.038648502670587614e+00 5.332291688623583923e+02
2.038748524675428442e+00 5.332325235687837903e+02
2.038848546680269269e+00 5.332349385035550995e+02
2.038948568685110541e+00 5.332364191884172442e+02
2.039048590689951812e+00 5.332369712721658743e+02
2.039148612694792639e+00 5.332366005246622080e+02
2.039248634699633911e+00 5.332353128309109707e+02
2.039348656704475182e+00 5.332331141852193923e+02
2.039448678709315566e+00 5.332300106854338537e+02
2.039548700714156837e+00 5.332260085272598644e+02
2.039648722718998108e+00 5.332211139986764010e+02
2.039748744723838936e+00 5.332153334744372160e+02
2.039848766728680207e+00 5.332086734106776476e+02
2.039948788733521479e+00 5.332011403396185187e+02
2.040048810738362306e+00 5.331927408643797435e+02
2.040148832743203133e+00 5.331834816539036410e+02
2.040248854748044405e+00 5.331733694379934150e+02
2.040348876752885232e+00 5.331624110024695256e+02
2.040448898757726504e+00 5.331506131844489573e+02
2.040548920762567775e+00 5.331379828677477235e+02
2.040648942767408602e+00 5.331245269784158154e+02
2.040748964772249874e+00 5.331102524804015275e+02
2.040848986777090701e+00 5.330951663713497055e+02
2.040949008781931973e+00 5.330792756785441497e+02
2.041049030786772800e+00 5.330625874549808714e+02
2.041149052791614071e+00 5.330451087755945991e+02
2.041249074796454899e+00 5.330268467336263711e+02
2.041349096801296170e+00 5.330078084371369869e+02
2.041449118806137442e+00 5.329880010056768924e+02
2.041549140810978269e+00 5.329674315671004479e+02
2.041649162815819096e+00 5.329461072545440175e+02
2.041749184820660368e+00 5.329240352035499200e+02
2.041849206825501639e+00 5.329012225493548840e+02
2.041949228830342467e+00 5.328776764243319803e+02
2.042049250835183738e+00 5.328534039555981963e+02
2.042149272840024565e+00 5.328284122627753732e+02
2.042249294844865837e+00 5.328027084559194009e+02
2.042349316849706664e+00 5.327762996336084598e+02
2.042449338854547936e+00 5.327491928811945172e+02
2.042549360859388763e+00 5.327213952692193288e+02
2.042649382864230034e+00 5.326929138519927847e+02
2.042749404869071306e+00 5.326637556663322357e+02
2.042849426873912133e+00 5.326339277304741699e+02
2.042949448878752960e+00 5.326034370431366369e+02
2.043049470883594232e+00 5.325722905827532259e+02
2.043149492888435503e+00 5.325404953068671148e+02
2.043249514893276331e+00 5.325080581516841676e+02
2.043349536898117602e+00 5.324749860317873527e+02
2.043449558902958429e+00 5.324412858400139612e+02
2.043549580907799701e+00 5.324069644474847109e+02
2.043649602912640528e+00 5.323720287037933758e+02
2.043749624917481800e+00 5.323364854373504613e+02
2.043849646922322627e+00 5.323003414558820623e+02
2.043949668927163899e+00 5.322636035470764000e+02
2.044049690932005170e+00 5.322262784793822448e+02
2.044149712936845997e+00 5.321883730029539947e+02
2.044249734941687269e+00 5.321498938507431831e+02
2.044349756946528096e+00 5.321108477397306160e+02
2.044449778951368923e+00 5.320712413722973224e+02
2.044549800956210195e+00 5.320310814377367024e+02
2.044649822961051466e+00 5.319903746138970746e+02
2.044749844965892294e+00 5.319491275689572376e+02
2.044849866970733565e+00 5.319073469633306104e+02
2.044949888975574837e+00 5.318650394516909046e+02
2.045049910980415220e+00 5.318222116851250121e+02
2.045149932985256491e+00 5.317788703133981016e+02
2.045249954990097763e+00 5.317350219873362676e+02
2.045349976994938590e+00 5.316906733613185452e+02
2.045449998999779861e+00 5.316458310958756783e+02
2.045550021004621133e+00 5.316005018603904091e+02
2.045650043009461960e+00 5.315546923359001994e+02
2.045750065014302788e+00 5.315084092179877189e+02
2.045850087019144059e+00 5.314616592197668297e+02
2.045950109023984886e+00 5.314144490749536089e+02
2.046050131028826158e+00 5.313667855410133143e+02
2.046150153033667429e+00 5.313186754023914773e+02
2.046250175038508257e+00 5.312701254738101397e+02
2.046350197043349528e+00 5.312211426036363946e+02
2.046450219048190355e+00 5.311717336773076568e+02
2.046550241053031627e+00 5.311219056208208258e+02
2.046650263057872454e+00 5.310716654042665823e+02
2.046750285062713726e+00 5.310210200454182541e+02
2.046850307067554553e+00 5.309699766133568346e+02
2.046950329072395824e+00 5.309185422321351098e+02
2.047050351077237096e+00 5.308667240844770276e+02
2.047150373082077923e+00 5.308145294154979865e+02
2.047250395086918751e+00 5.307619655364482014e+02
2.047350417091760022e+00 5.307090398284760795e+02
2.047450439096601293e+00 5.306557597463959155e+02
2.047550461101442121e+00 5.306021328224644549e+02
2.047650483106283392e+00 5.305481666701576842e+02
2.047750505111124220e+00 5.304938689879380718e+02
2.047850527115965491e+00 5.304392475630146464e+02
2.047950549120806318e+00 5.303843102750837488e+02
2.048050571125647590e+00 5.303290651000513662e+02
2.048150593130488417e+00 5.302735201137188596e+02
2.048250615135329689e+00 5.302176834954494780e+02
2.048350637140170960e+00 5.301615635317813258e+02
2.048450659145011787e+00 5.301051686200083850e+02
2.048550681149852615e+00 5.300485072717027606e+02
2.048650703154693886e+00 5.299915881161894049e+02
2.048750725159535158e+00 5.299344199039543355e+02
2.048850747164375985e+00 5.298770115099911209e+02
2.048950769169217256e+00 5.298193719370731287e+02
2.049050791174058084e+00 5.297615103189539241e+02
2.049150813178898911e+00 5.297034359234791054e+02
2.049250835183740183e+00 5.296451581556181054e+02
2.049350857188581454e+00 5.295866865603985616e+02
2.049450879193422281e+00 5.295280308257487150e+02
2.049550901198263553e+00 5.294692007852316920e+02
2.049650923203104824e+00 5.294102064206767864e+02
2.049750945207945652e+00 5.293510578646984186e+02
2.049850967212786479e+00 5.292917654030965195e+02
2.049950989217627750e+00 5.292323394771342464e+02
2.050051011222468578e+00 5.291727906856945083e+02
2.050151033227309849e+00 5.291131297873005224e+02
2.050251055232151121e+00 5.290533677020011964e+02
2.050351077236991948e+00 5.289935155131221336e+02
2.050451099241833219e+00 5.289335844688635007e+02
2.050551121246674047e+00 5.288735859837619273e+02
2.050651143251514874e+00 5.288135316399859676e+02
2.050751165256356146e+00 5.287534331884877474e+02
2.050851187261197417e+00 5.286933025499868108e+02
2.050951209266038244e+00 5.286331518157936671e+02
2.051051231270879516e+00 5.285729932484662186e+02
2.051151253275720787e+00 5.285128392822899741e+02
2.051251275280561615e+00 5.284527025235934161e+02
2.051351297285402442e+00 5.283925957508772626e+02
2.051451319290243713e+00 5.283325319147678556e+02
2.051551341295084541e+00 5.282725241377861494e+02
2.051651363299925812e+00 5.282125857139304799e+02
2.051751385304767084e+00 5.281527301080686811e+02
2.051851407309607911e+00 5.280929709551439828e+02
2.051951429314448738e+00 5.280333220591779764e+02
2.052051451319290010e+00 5.279737973920903187e+02
2.052151473324131281e+00 5.279144110923080007e+02
2.052251495328972108e+00 5.278551774631831677e+02
2.052351517333813380e+00 5.277961109712049392e+02
2.052451539338654207e+00 5.277372262440114810e+02
2.052551561343495479e+00 5.276785380681942570e+02
2.052651583348336306e+00 5.276200613868991240e+02
2.052751605353177577e+00 5.275618112972190374e+02
2.052851627358018405e+00 5.275038030473797335e+02
2.052951649362859676e+00 5.274460520337173648e+02
2.053051671367700948e+00 5.273885737974454742e+02
2.053151693372541775e+00 5.273313840212169907e+02
2.053251715377383047e+00 5.272744985254695393e+02
2.053351737382223874e+00 5.272179332645689556e+02
2.053451759387065145e+00 5.271617043227378190e+02
2.053551781391905973e+00 5.271058279097777586e+02
2.053651803396747244e+00 5.270503203565817785e+02
2.053751825401588071e+00 5.269951981104413790e+02
2.053851847406429343e+00 5.269404777301416516e+02
2.053951869411270614e+00 5.268861758808578770e+02
2.054051891416111442e+00 5.268323093288375958e+02
2.054151913420952269e+00 5.267788949358912305e+02
2.054251935425793540e+00 5.267259496536710230e+02
2.054351957430634812e+00 5.266734905177553401e+02
2.054451979435475639e+00 5.266215346415325484e+02
2.054552001440316911e+00 5.265700992098934421e+02
2.054652023445157738e+00 5.265192014727228980e+02
2.054752045449998565e+00 5.264688587382079277e+02
2.054852067454839837e+00 5.264190883659522342e+02
2.054952089459681108e+00 5.263699077599093243e+02
2.055052111464521936e+00 5.263213343611295159e+02
2.055152133469363207e+00 5.262733856403295931e+02
2.055252155474204478e+00 5.262260790902865892e+02
2.055352177479045306e+00 5.261794322180595600e+02
2.055452199483886133e+00 5.261334625370403728e+02
2.055552221488727405e+00 5.260881875588422645e+02
2.055652243493568232e+00 5.260436247850262816e+02
2.055752265498409503e+00 5.259997916986727660e+02
2.055852287503250775e+00 5.259567057557979979e+02
2.055952309508091602e+00 5.259143843766237296e+02
2.056052331512932874e+00 5.258728449367065423e+02
2.056152353517773701e+00 5.258321047579242986e+02
2.056252375522614528e+00 5.257921810993337886e+02
2.056352397527455800e+00 5.257530911478964981e+02
2.056452419532297071e+00 5.257148520090850070e+02
2.056552441537137899e+00 5.256774806973662635e+02
2.056652463541979170e+00 5.256409941265810630e+02
2.056752485546820441e+00 5.256054091002093855e+02
2.056852507551661269e+00 5.255707423015392123e+02
2.056952529556502096e+00 5.255370102837404147e+02
2.057052551561343368e+00 5.255042294598488297e+02
2.057152573566184195e+00 5.254724160926693912e+02
2.057252595571025466e+00 5.254415862846032041e+02
2.057352617575866738e+00 5.254117559674014046e+02
2.057452639580707565e+00 5.253829408918604713e+02
2.057552661585548393e+00 5.253551566174612617e+02
2.057652683590389664e+00 5.253284185019507504e+02
2.057752705595230935e+00 5.253027416908919349e+02
2.057852727600071763e+00 5.252781411071659932e+02
2.057952749604913034e+00 5.252546314404546592e+02
2.058052771609753862e+00 5.252322271366961104e+02
2.058152793614595133e+00 5.252109423875245966e+02
2.058252815619435960e+00 5.251907911197064323e+02
2.058352837624277232e+00 5.251717869845721225e+02
2.058452859629118059e+00 5.251539433474564476e+02
2.058552881633959331e+00 5.251372732771535539e+02
2.058652903638800602e+00 5.251217895353944414e+02
2.058752925643641429e+00 5.251075045663493484e+02
2.058852947648482701e+00 5.250944304861723140e+02
2.058952969653323528e+00 5.250825790725891693e+02
2.059052991658164800e+00 5.250719617545341862e+02
2.059153013663005627e+00 5.250625896018498224e+02
2.059253035667846898e+00 5.250544733150522916e+02
2.059353057672687726e+00 5.250476232151742124e+02
2.059453079677528997e+00 5.250420492336867255e+02
2.059553101682370269e+00 5.250377609025150605e+02
2.059653123687211096e+00 5.250347673441522147e+02
2.059753145692051923e+00 5.250330772618756328e+02
2.059853167696893195e+00 5.250326989300822333e+02
2.059953189701734466e+00 5.250336401847389425e+02
2.060053211706575294e+00 5.250359084139690822e+02
2.060153233711416565e+00 5.250395105487706360e+02
2.060253255716257392e+00 5.250444530538798062e+02
2.060353277721098220e+00 5.250507419187861160e+02
2.060453299725939491e+00 5.250583826489089461e+02
2.060553321730780763e+00 5.250673802569408508e+02
2.060653343735621590e+00 5.250777392543608357e+02
2.060753365740462861e+00 5.250894636431351046e+02
2.060853387745304133e+00 5.251025569076047077e+02
2.060953409750144960e+00 5.251170220065657759e+02
2.061053431754985787e+00 5.251328613655614390e+02
2.061153453759827059e+00 5.251500768693767895e+02
2.061253475764667886e+00 5.251686698547537162e+02
2.061353497769509158e+00 5.251886411033326567e+02
2.061453519774350429e+00 5.252099908348220652e+02
2.061553541779191256e+00 5.252327187004094640e+02
2.061653563784032528e+00 5.252568237764122614e+02
2.061753585788873355e+00 5.252823045581862971e+02
2.061853607793714183e+00 5.253091589542869997e+02
2.061953629798555454e+00 5.253373842808955487e+02
2.062053651803396725e+00 5.253669772565157245e+02
2.062153673808237553e+00 5.253979339969462217e+02
2.062253695813078824e+00 5.254302500105357012e+02
2.062353717817920096e+00 5.254639201937242206e+02
2.062453739822760923e+00 5.254989388268785433e+02
2.062553761827601750e+00 5.255352995704266732e+02
2.062653783832443022e+00 5.255729954612949086e+02
2.062753805837283849e+00 5.256120189096542390e+02
2.062853827842125121e+00 5.256523616959837000e+02
2.062953849846966392e+00 5.256940149684483004e+02
2.063053871851807219e+00 5.257369692406039121e+02
2.063153893856648047e+00 5.257812143894255996e+02
2.063253915861489318e+00 5.258267396536758724e+02
2.063353937866330590e+00 5.258735336326001288e+02
2.063453959871171417e+00 5.259215842849698674e+02
2.063553981876012688e+00 5.259708789284663908e+02
2.063654003880853516e+00 5.260214042394112539e+02
2.063754025885694787e+00 5.260731462528494831e+02
2.063854047890535615e+00 5.261260903629862469e+02
2.063954069895376886e+00 5.261802213239808452e+02
2.064054091900217713e+00 5.262355232510969927e+02
2.064154113905058985e+00 5.262919796222220157e+02
2.064254135909900256e+00 5.263495732797423443e+02
2.064354157914741084e+00 5.264082864327924653e+02
2.064454179919582355e+00 5.264681006598672184e+02
2.064554201924423182e+00 5.265289969118086901e+02
2.064654223929264454e+00 5.265909555151589529e+02
2.064754245934105281e+00 5.266539561758909258e+02
2.064854267938946553e+00 5.267179779835098543e+02
2.064954289943787380e+00 5.267829994155290478e+02
2.065054311948628651e+00 5.268489983423226022e+02
2.065154333953469923e+00 5.269159520323515835e+02
2.065254355958310750e+00 5.269838371577648104e+02
2.065354377963151578e+00 5.270526298003771899e+02
2.065454399967992849e+00 5.271223054580203780e+02
2.065554421972834120e+00 5.271928390512684928e+02
2.065654443977674948e+00 5.272642049305360388e+02
2.065754465982516219e+00 5.273363768835512246e+02
2.065854487987357047e+00 5.274093281431923970e+02
2.065954509992197874e+00 5.274830313957035060e+02
2.066054531997039145e+00 5.275574587892685940e+02
2.066154554001880417e+00 5.276325819429531521e+02
2.066254576006721244e+00 5.277083719560131385e+02
2.066354598011562516e+00 5.277847994175566555e+02
2.066454620016403787e+00 5.278618344165706731e+02
2.066554642021244170e+00 5.279394465522949531e+02
2.066654664026085442e+00 5.280176049449527227e+02
2.066754686030926713e+00 5.280962782468254773e+02
2.066854708035767541e+00 5.281754346536745288e+02
2.066954730040608812e+00 5.282550419164992945e+02
2.067054752045450083e+00 5.283350673536340310e+02
2.067154774050290911e+00 5.284154778631752833e+02
2.067254796055131738e+00 5.284962399357341383e+02
2.067354818059973010e+00 5.285773196675105510e+02
2.067454840064813837e+00 5.286586827736887244e+02
2.067554862069655108e+00 5.287402946021377375e+02
2.067654884074496380e+00 5.288221201474202644e+02
2.067754906079337207e+00 5.289041240651018825e+02
2.067854928084178479e+00 5.289862706863543735e+02
2.067954950089019306e+00 5.290685240328441523e+02
2.068054972093860577e+00 5.291508478319060487e+02
2.068154994098701405e+00 5.292332055319876645e+02
2.068255016103542676e+00 5.293155603183651010e+02
2.068355038108383503e+00 5.293978751291161871e+02
2.068455060113224775e+00 5.294801126713493886e+02
2.068555082118066046e+00 5.295622354376780550e+02
2.068655104122906874e+00 5.296442057229335205e+02
2.068755126127747701e+00 5.297259856411084229e+02
2.068855148132588972e+00 5.298075371425221647e+02
2.068955170137430244e+00 5.298888220312020394e+02
2.069055192142271071e+00 5.299698019824709263e+02
2.069155214147112343e+00 5.300504385607281392e+02
2.069255236151953170e+00 5.301306932374267262e+02
2.069355258156794442e+00 5.302105274092239142e+02
2.069455280161635269e+00 5.302899024163057220e+02
2.069555302166476540e+00 5.303687795608746001e+02
2.069655324171317368e+00 5.304471201257858866e+02
2.069755346176158639e+00 5.305248853933319424e+02
2.069855368180999911e+00 5.306020366641545252e+02
2.069955390185840738e+00 5.306785352762864250e+02
2.070055412190681565e+00 5.307543426243045133e+02
2.070155434195522837e+00 5.308294201785835185e+02
2.070255456200364108e+00 5.309037295046523468e+02
2.070355478205204935e+00 5.309772322826225945e+02
2.070455500210046207e+00 5.310498903267010746e+02
2.070555522214887034e+00 5.311216656047602100e+02
2.070655544219728306e+00 5.311925202579593588e+02
2.070755566224569133e+00 5.312624166204111589e+02
2.070855588229410404e+00 5.313313172388790235e+02
2.070955610234251232e+00 5.313991848924936221e+02
2.071055632239092503e+00 5.314659826124793653e+02
2.071155654243933775e+00 5.315316737018799813e+02
2.071255676248774602e+00 5.315962217552738593e+02
2.071355698253615873e+00 5.316595906784602903e+02
2.071455720258456701e+00 5.317217447081210366e+02
2.071555742263297528e+00 5.317826484314274467e+02
2.071655764268138800e+00 5.318422668055965232e+02
2.071755786272980071e+00 5.319005651773788941e+02
2.071855808277820898e+00 5.319575093024665193e+02
2.071955830282662170e+00 5.320130653648141106e+02
2.072055852287503441e+00 5.320671999958543665e+02
2.072155874292343825e+00 5.321198802936079346e+02
2.072255896297185096e+00 5.321710738416646791e+02
2.072355918302026367e+00 5.322207487280319356e+02
2.072455940306867195e+00 5.322688735638405433e+02
2.072555962311708466e+00 5.323154175018919432e+02
2.072655984316549738e+00 5.323603502550364510e+02
2.072756006321390565e+00 5.324036421143753159e+02
2.072856028326231392e+00 5.324452639672738314e+02
2.072956050331072664e+00 5.324851873151723112e+02
2.073056072335913491e+00 5.325233842911868578e+02
2.073156094340754763e+00 5.325598276774876467e+02
2.073256116345596034e+00 5.325944909224465391e+02
2.073356138350436861e+00 5.326273481575382220e+02
2.073456160355278133e+00 5.326583742139905553e+02
2.073556182360118960e+00 5.326875446391709374e+02
2.073656204364960232e+00 5.327148357126934570e+02
2.073756226369801059e+00 5.327402244622498984e+02
2.073856248374642330e+00 5.327636886791374309e+02
2.073956270379483158e+00 5.327852069334862790e+02
2.074056292384324429e+00 5.328047585891722520e+02
2.074156314389165701e+00 5.328223238184043566e+02
2.074256336394006528e+00 5.328378836159795355e+02
2.074356358398847355e+00 5.328514198131913417e+02
2.074456380403688627e+00 5.328629150913897092e+02
2.074556402408529898e+00 5.328723529951776072e+02
2.074656424413370726e+00 5.328797179452354840e+02
2.074756446418211997e+00 5.328849952507696344e+02
2.074856468423052824e+00 5.328881711215677797e+02
2.074956490427894096e+00 5.328892326796643601e+02
2.075056512432734923e+00 5.328881679705951910e+02
2.075156534437576195e+00 5.328849659742429594e+02
2.075256556442417022e+00 5.328796166152624210e+02
2.075356578447258293e+00 5.328721107730730182e+02
2.075456600452099565e+00 5.328624402914219900e+02
2.075556622456940392e+00 5.328505979875009189e+02
2.075656644461781219e+00 5.328365776606111694e+02
2.075756666466622491e+00 5.328203741003766254e+02
2.075856688471463762e+00 5.328019830944903106e+02
2.075956710476304590e+00 5.327814014359917110e+02
2.076056732481145861e+00 5.327586269300701360e+02
2.076156754485986689e+00 5.327336584003841153e+02
2.076256776490827960e+00 5.327064956948971712e+02
2.076356798495668787e+00 5.326771396912154160e+02
2.076456820500510059e+00 5.326455923014354994e+02
2.076556842505350886e+00 5.326118564764824441e+02
2.076656864510192158e+00 5.325759362099466898e+02
2.076756886515033429e+00 5.325378365414062500e+02
2.076856908519874256e+00 5.324975635592339813e+02
2.076956930524715528e+00 5.324551244028873498e+02
2.077056952529556355e+00 5.324105272646755793e+02
2.077156974534397182e+00 5.323637813909979286e+02
2.077256996539238454e+00 5.323148970830577582e+02
2.077357018544079725e+00 5.322638856970429515e+02
2.077457040548920553e+00 5.322107596437709844e+02
2.077557062553761824e+00 5.321555323878020545e+02
2.077657084558603096e+00 5.320982184460108328e+02
2.077757106563443479e+00 5.320388333856221834e+02
2.077857128568284750e+00 5.319773938217052773e+02
2.077957150573126022e+00 5.319139174141231479e+02
2.078057172577966849e+00 5.318484228639503044e+02
2.078157194582808120e+00 5.317809299093336222e+02
2.078257216587649392e+00 5.317114593208260658e+02
2.078357238592490219e+00 5.316400328961656214e+02
2.078457260597331047e+00 5.315666734545236523e+02
2.078557282602172318e+00 5.314914048302040328e+02
2.078657304607013145e+00 5.314142518658097742e+02
2.078757326611854417e+00 5.313352404048665676e+02
2.078857348616695688e+00 5.312543972839148410e+02
2.078957370621536516e+00 5.311717503240641918e+02
2.079057392626377787e+00 5.310873283220190615e+02
2.079157414631218614e+00 5.310011610405732654e+02
2.079257436636059886e+00 5.309132791985824724e+02
2.079357458640900713e+00 5.308237144604075866e+02
2.079457480645741985e+00 5.307324994248469920e+02
2.079557502650582812e+00 5.306396676135468624e+02
2.079657524655424083e+00 5.305452534589055631e+02
2.079757546660265355e+00 5.304492922914677138e+02
2.079857568665106182e+00 5.303518203268221214e+02
2.079957590669947010e+00 5.302528746519942615e+02
2.080057612674788281e+00 5.301524932113570685e+02
2.080157634679629552e+00 5.300507147920488933e+02
2.080257656684470380e+00 5.299475790089168186e+02
2.080357678689311651e+00 5.298431262889824893e+02
2.080457700694152479e+00 5.297373978554435325e+02
2.080557722698993750e+00 5.296304357112122716e+02
2.080657744703834577e+00 5.295222826220052639e+02
2.080757766708675849e+00 5.294129820989818427e+02
2.080857788713516676e+00 5.293025783809476934e+02
2.080957810718357948e+00 5.291911164161256238e+02
2.081057832723199219e+00 5.290786418435061478e+02
2.081157854728040046e+00 5.289652009737822027e+02
2.081257876732880874e+00 5.288508407698772089e+02
2.081357898737722145e+00 5.287356088270802275e+02
2.081457920742563417e+00 5.286195533527882162e+02
2.081557942747404244e+00 5.285027231458739152e+02
2.081657964752245515e+00 5.283851675756841360e+02
2.081757986757086343e+00 5.282669365606748215e+02
2.081858008761927614e+00 5.281480805467060691e+02
2.081958030766768442e+00 5.280286504849851781e+02
2.082058052771609713e+00 5.279086978096954681e+02
2.082158074776450540e+00 5.277882744152940404e+02
2.082258096781291812e+00 5.276674326335141814e+02
2.082358118786133083e+00 5.275462252100614933e+02
2.082458140790973911e+00 5.274247052810333116e+02
2.082558162795815182e+00 5.273029263490584526e+02
2.082658184800656009e+00 5.271809422591798011e+02
2.082758206805496837e+00 5.270588071744845138e+02
2.082858228810338108e+00 5.269365755514952525e+02
2.082958250815179380e+00 5.268143021153375685e+02
2.083058272820020207e+00 5.266920418346920769e+02
2.083158294824861478e+00 5.265698498965435874e+02
2.083258316829702750e+00 5.264477816807456065e+02
2.083358338834543133e+00 5.263258927344035101e+02
2.083458360839384405e+00 5.262042387460975306e+02
2.083558382844225676e+00 5.260828755199531770e+02
2.083658404849066503e+00 5.259618589495736387e+02
2.083758426853907775e+00 5.258412449918520224e+02
2.083858448858749046e+00 5.257210896406637630e+02
2.083958470863589874e+00 5.256014489004708139e+02
2.084058492868430701e+00 5.254823787598324998e+02
2.084158514873271972e+00 5.253639351648503180e+02
2.084258536878112800e+00 5.252461739925540769e+02
2.084358558882954071e+00 5.251291510242427876e+02
2.084458580887795343e+00 5.250129219187945182e+02
2.084558602892636170e+00 5.248975421859638573e+02
2.084658624897476997e+00 5.247830671596694856e+02
2.084758646902318269e+00 5.246695519712974374e+02
2.084858668907159540e+00 5.245570515230290312e+02
2.084958690912000367e+00 5.244456204612025658e+02
2.085058712916841639e+00 5.243353131497326558e+02
2.085158734921682466e+00 5.242261836435912983e+02
2.085258756926523738e+00 5.241182856623711359e+02
2.085358778931364565e+00 5.240116725639414881e+02
2.085458800936205837e+00 5.239063973182098835e+02
2.085558822941046664e+00 5.238025124810088755e+02
2.085658844945887935e+00 5.237000701681140526e+02
2.085758866950729207e+00 5.235991220294095001e+02
2.085858888955570034e+00 5.234997192232189036e+02
2.085958910960411306e+00 5.234019123908126403e+02
2.086058932965252133e+00 5.233057516310955180e+02
2.086158954970093404e+00 5.232112864755091550e+02
2.086258976974934232e+00 5.231185658631408160e+02
2.086358998979775503e+00 5.230276381160649635e+02
2.086459020984616330e+00 5.229385509149261679e+02
2.086559042989457602e+00 5.228513512747772438e+02
2.086659064994298873e+00 5.227660855211852322e+02
2.086759086999139701e+00 5.226827992666180762e+02
2.086859109003980528e+00 5.226015373871255179e+02
2.086959131008821799e+00 5.225223439993242209e+02
2.087059153013663071e+00 5.224452624377034908e+02
2.087159175018503898e+00 5.223703352322588671e+02
2.087259197023345170e+00 5.222976040864713241e+02
2.087359219028185997e+00 5.222271098556379911e+02
2.087459241033026824e+00 5.221588925255731510e+02
2.087559263037868096e+00 5.220929911916804258e+02
2.087659285042709367e+00 5.220294440384233212e+02
2.087759307047550195e+00 5.219682883191868541e+02
2.087859329052391466e+00 5.219095603365578881e+02
2.087959351057232738e+00 5.218532954230237237e+02
2.088059373062073565e+00 5.217995279221029250e+02
2.088159395066914392e+00 5.217482911699235046e+02
2.088259417071755664e+00 5.216996174772488075e+02
2.088359439076596491e+00 5.216535381119724661e+02
2.088459461081437762e+00 5.216100832820804953e+02
2.088559483086279034e+00 5.215692821190987161e+02
2.088659505091119861e+00 5.215311626620335801e+02
2.088759527095961133e+00 5.214957518418073050e+02
2.088859549100801960e+00 5.214630754662102845e+02
2.088959571105642787e+00 5.214331582053630427e+02
2.089059593110484059e+00 5.214060235777099024e+02
2.089159615115325330e+00 5.213816939365443659e+02
2.089259637120166158e+00 5.213601904570723491e+02
2.089359659125007429e+00 5.213415331240319119e+02
2.089459681129848700e+00 5.213257407198592546e+02
2.089559703134689528e+00 5.213128308134250801e+02
2.089659725139530355e+00 5.213028197493345033e+02
2.089759747144371627e+00 5.212957226378063069e+02
2.089859769149212454e+00 5.212915533451282499e+02
2.089959791154053725e+00 5.212903244847038877e+02
2.090059813158894997e+00 5.212920474086877221e+02
2.090159835163735824e+00 5.212967322002210722e+02
2.090259857168576652e+00 5.213043876662636649e+02
2.090359879173417923e+00 5.213150213310352683e+02
2.090459901178259194e+00 5.213286394300687334e+02
2.090559923183100022e+00 5.213452469048706917e+02
2.090659945187941293e+00 5.213648473982040059e+02
2.090759967192782121e+00 5.213874432499889053e+02
2.090859989197623392e+00 5.214130354938279197e+02
2.090960011202464219e+00 5.214416238541521125e+02
2.091060033207305491e+00 5.214732067439980483e+02
2.091160055212146318e+00 5.215077812634144721e+02
2.091260077216987590e+00 5.215453431984967665e+02
2.091360099221828861e+00 5.215858870210518035e+02
2.091460121226669688e+00 5.216294058888998961e+02
2.091560143231510960e+00 5.216758916468043026e+02
2.091660165236351787e+00 5.217253348280360115e+02
2.091760187241193059e+00 5.217777246565701716e+02
2.091860209246033886e+00 5.218330490499145071e+02
2.091960231250875157e+00 5.218912946225678979e+02
2.092060253255715985e+00 5.219524466901098094e+02
2.092160275260557256e+00 5.220164892739159086e+02
2.092260297265398528e+00 5.220834051065006634e+02
2.092360319270239355e+00 5.221531756374849920e+02
2.092460341275080182e+00 5.222257810401828237e+02
2.092560363279921454e+00 5.223012002188050928e+02
2.092660385284762725e+00 5.223794108162824159e+02
2.092760407289603553e+00 5.224603892226978132e+02
2.092860429294444824e+00 5.225441105843215155e+02
2.092960451299285651e+00 5.226305488132583150e+02
2.093060473304126479e+00 5.227196765976850656e+02
2.093160495308967750e+00 5.228114654126874257e+02
2.093260517313809022e+00 5.229058855316802692e+02
2.093360539318649849e+00 5.230029060384182458e+02
2.093460561323491120e+00 5.231024948395744332e+02
2.093560583328332392e+00 5.232046186778975425e+02
2.093660605333173219e+00 5.233092431459294858e+02
2.093760627338014046e+00 5.234163327002829647e+02
2.093860649342855318e+00 5.235258506764674848e+02
2.093960671347696145e+00 5.236377593042631133e+02
2.094060693352537417e+00 5.237520197236242439e+02
2.094160715357378688e+00 5.238685920011159851e+02
2.094260737362219515e+00 5.239874351468690747e+02
2.094360759367060787e+00 5.241085071320449060e+02
2.094460781371901614e+00 5.242317649068056653e+02
2.094560803376742442e+00 5.243571644187722995e+02
2.094660825381583713e+00 5.244846606319764533e+02
2.094760847386424985e+00 5.246142075462770435e+02
2.094860869391265812e+00 5.247457582172496586e+02
2.094960891396107083e+00 5.248792647765250194e+02
2.095060913400948355e+00 5.250146784525770727e+02
2.095160935405789182e+00 5.251519495919415021e+02
2.095260957410630009e+00 5.252910276808609069e+02
2.095360979415471281e+00 5.254318613673397067e+02
2.095461001420312108e+00 5.255743984836033178e+02
2.095561023425153380e+00 5.257185860689437504e+02
2.095661045429994651e+00 5.258643703929478761e+02
2.095761067434835478e+00 5.260116969790899475e+02
2.095861089439676306e+00 5.261605106286783666e+02
2.095961111444517577e+00 5.263107554451462420e+02
2.096061133449358849e+00 5.264623748586719785e+02
2.096161155454199676e+00 5.266153116511163716e+02
2.096261177459040947e+00 5.267695079812682479e+02
2.096361199463881775e+00 5.269249054103767094e+02
2.096461221468723046e+00 5.270814449279686187e+02
2.096561243473563874e+00 5.272390669779275640e+02
2.096661265478405145e+00 5.273977114848274823e+02
2.096761287483245972e+00 5.275573178805070711e+02
2.096861309488087244e+00 5.277178251308686185e+02
2.096961331492928515e+00 5.278791717628869264e+02
2.097061353497769343e+00 5.280412958918248023e+02
2.097161375502610614e+00 5.282041352486213555e+02
2.097261397507451441e+00 5.283676272074640110e+02
2.097361419512292713e+00 5.285317088135066115e+02
2.097461441517133540e+00 5.286963168107369029e+02
2.097561463521974812e+00 5.288613876699716911e+02
2.097661485526815639e+00 5.290268576169634116e+02
2.097761507531656910e+00 5.291926626606102673e+02
2.097861529536498182e+00 5.293587386212512911e+02
2.097961551541339009e+00 5.295250211590331446e+02
2.098061573546179837e+00 5.296914458023313728e+02
2.098161595551021108e+00 5.298579479762199753e+02
2.098261617555862379e+00 5.300244630309659897e+02
2.098361639560703207e+00 5.301909262705364654e+02
2.098461661565544478e+00 5.303572729811107820e+02
2.098561683570385306e+00 5.305234384595709116e+02
2.098661705575226133e+00 5.306893580419706495e+02
2.098761727580067404e+00 5.308549671319543677e+02
2.098861749584908676e+00 5.310202012291217670e+02
2.098961771589749503e+00 5.311849959573219166e+02
2.099061793594590775e+00 5.313492870928565708e+02
2.099161815599432046e+00 5.315130105925886710e+02
2.099261837604272873e+00 5.316761026219321593e+02
2.099361859609113701e+00 5.318384995827159401e+02
2.099461881613954972e+00 5.320001381409053920e+02
2.099561903618795800e+00 5.321609552541660833e+02
2.099661925623637071e+00 5.323208881992603665e+02
2.099761947628478342e+00 5.324798745992596878e+02
2.099861969633319170e+00 5.326378524505573751e+02
2.099961991638160441e+00 5.327947601496747438e+02
2.100062013643001269e+00 5.329505365198441496e+02
2.100162035647842096e+00 5.331051208373502277e+02
2.100262057652683367e+00 5.332584528576276170e+02
2.100362079657524639e+00 5.334104728410922007e+02
2.100462101662365466e+00 5.335611215786985895e+02
2.100562123667206738e+00 5.337103404172113414e+02
2.100662145672048009e+00 5.338580712841734339e+02
2.100762167676888836e+00 5.340042567125659616e+02
2.100862189681729664e+00 5.341488398651389389e+02
2.100962211686570935e+00 5.342917645584109323e+02
2.101062233691411762e+00 5.344329752863217209e+02
2.101162255696253034e+00 5.345724172435203627e+02
2.101262277701094305e+00 5.347100363482891225e+02
2.101362299705935133e+00 5.348457792650810916e+02
2.101462321710775960e+00 5.349795934266758195e+02
2.101562343715617232e+00 5.351114270559158967e+02
2.101662365720458503e+00 5.352412291870526815e+02
2.101762387725299330e+00 5.353689496866480795e+02
2.101862409730140602e+00 5.354945392740610259e+02
2.101962431734981429e+00 5.356179495414787652e+02
2.102062453739822701e+00 5.357391329735095269e+02
2.102162475744663528e+00 5.358580429663026052e+02
2.102262497749504799e+00 5.359746338462095991e+02
2.102362519754345627e+00 5.360888608879607773e+02
2.102462541759186898e+00 5.362006803323620261e+02
2.102562563764028170e+00 5.363100494034904386e+02
2.102662585768868997e+00 5.364169263253962754e+02
2.102762607773709824e+00 5.365212703382920836e+02
2.102862629778551096e+00 5.366230417142247688e+02
2.102962651783392367e+00 5.367222017722281180e+02
2.103062673788233194e+00 5.368187128929433811e+02
2.103162695793074466e+00 5.369125385327070035e+02
2.103262717797915293e+00 5.370036432370931152e+02
2.103362739802756565e+00 5.370919926539128255e+02
2.103462761807597392e+00 5.371775535456596344e+02
2.103562783812438663e+00 5.372602938013956191e+02
2.103662805817279491e+00 5.373401824480797586e+02
2.103762827822120762e+00 5.374171896613254376e+02
2.103862849826962034e+00 5.374912867755882644e+02
2.103962871831802861e+00 5.375624462937859107e+02
2.104062893836644133e+00 5.376306418963278020e+02
2.104162915841484960e+00 5.376958484495762605e+02
2.104262937846325787e+00 5.377580420137176134e+02
2.104362959851167059e+00 5.378171998500475866e+02
2.104462981856008330e+00 5.378733004276708698e+02
2.104563003860849157e+00 5.379263234296097380e+02
2.104663025865690429e+00 5.379762497583175218e+02
2.104763047870531700e+00 5.380230615406069319e+02
2.104863069875372084e+00 5.380667421319776622e+02
2.104963091880213355e+00 5.381072761203539585e+02
2.105063113885054626e+00 5.381446493292265814e+02
2.105163135889895454e+00 5.381788488202007557e+02
2.105263157894736725e+00 5.382098628949511294e+02
2.105363179899577997e+00 5.382376810965829463e+02
2.105463201904418824e+00 5.382622942104021604e+02
2.105563223909259651e+00 5.382836942640942652e+02
2.105663245914100923e+00 5.383018745273171817e+02
2.105763267918941750e+00 5.383168295107028598e+02
2.105863289923783022e+00 5.383285549642802152e+02
2.105963311928624293e+00 5.383370478753105317e+02
2.106063333933465120e+00 5.383423064655503367e+02
2.106163355938306392e+00 5.383443301879367482e+02
2.106263377943147219e+00 5.383431197226977929e+02
2.106363399947988491e+00 5.383386769729015668e+02
2.106463421952829318e+00 5.383310050594357108e+02
2.106563443957670589e+00 5.383201083154328899e+02
2.106663465962511417e+00 5.383059922801384118e+02
2.106763487967352688e+00 5.382886636922310117e+02
2.106863509972193960e+00 5.382681304826012365e+02
2.106963531977034787e+00 5.382444017665847014e+02
2.107063553981875614e+00 5.382174878356757972e+02
2.107163575986716886e+00 5.381874001487024088e+02
2.107263597991558157e+00 5.381541513224905202e+02
2.107363619996398985e+00 5.381177551220122268e+02
2.107463642001240256e+00 5.380782264500301153e+02
2.107563664006081083e+00 5.380355813362400568e+02
2.107663686010922355e+00 5.379898369259279889e+02
2.107763708015763182e+00 5.379410114681426194e+02
2.107863730020604454e+00 5.378891243033879164e+02
2.107963752025445281e+00 5.378341958508591460e+02
2.108063774030286552e+00 5.377762475952102932e+02
2.108163796035127824e+00 5.377153020728798083e+02
2.108263818039968651e+00 5.376513828579717256e+02
2.108363840044809479e+00 5.375845145477079541e+02
2.108463862049650750e+00 5.375147227474579950e+02
2.108563884054492021e+00 5.374420340553560891e+02
2.108663906059332849e+00 5.373664760465155723e+02
2.108763928064174120e+00 5.372880772568518069e+02
2.108863950069014948e+00 5.372068671665232387e+02
2.108963972073856219e+00 5.371228761829991072e+02
2.109063994078697046e+00 5.370361356237658583e+02
2.109164016083538318e+00 5.369466776986835157e+02
2.109264038088379145e+00 5.368545354920028103e+02
2.109364060093220417e+00 5.367597429440527321e+02
2.109464082098061688e+00 5.366623348326082805e+02
2.109564104102902515e+00 5.365623467539561489e+02
2.109664126107743787e+00 5.364598151036612990e+02
2.109764148112584614e+00 5.363547770570531839e+02
2.109864170117425441e+00 5.362472705494362799e+02
2.109964192122266713e+00 5.361373342560463016e+02
2.110064214127107984e+00 5.360250075717524396e+02
2.110164236131948812e+00 5.359103305905259731e+02
2.110264258136790083e+00 5.357933440846870781e+02
2.110364280141631355e+00 5.356740894839342673e+02
2.110464302146471738e+00 5.355526088541787431e+02
2.110564324151313009e+00 5.354289448761907124e+02
2.110664346156154281e+00 5.353031408240664177e+02
2.110764368160995108e+00 5.351752405435394166e+02
2.110864390165836380e+00 5.350452884301341783e+02
2.110964412170677651e+00 5.349133294071883711e+02
2.111064434175518478e+00 5.347794089037461163e+02
2.111164456180359306e+00 5.346435728323393732e+02
2.111264478185200577e+00 5.345058675666698491e+02
2.111364500190041404e+00 5.343663399192014367e+02
2.111464522194882676e+00 5.342250371186826214e+02
2.111564544199723947e+00 5.340820067875972654e+02
2.111664566204564775e+00 5.339372969195774203e+02
2.111764588209406046e+00 5.337909558567670274e+02
2.111864610214246873e+00 5.336430322671723161e+02
2.111964632219088145e+00 5.334935751219857138e+02
2.112064654223928972e+00 5.333426336729240802e+02
2.112164676228770244e+00 5.331902574295721706e+02
2.112264698233611071e+00 5.330364961367480419e+02
2.112364720238452342e+00 5.328813997519130226e+02
2.112464742243293614e+00 5.327250184226243164e+02
2.112564764248134441e+00 5.325674024640508151e+02
2.112664786252975269e+00 5.324086023365646270e+02
2.112764808257816540e+00 5.322486686234125273e+02
2.112864830262657811e+00 5.320876520084891581e+02
2.112964852267498639e+00 5.319256032542166395e+02
2.113064874272339910e+00 5.317625731795438924e+02
2.113164896277180738e+00 5.315986126380774976e+02
2.113264918282022009e+00 5.314337724963601204e+02
2.113364940286862836e+00 5.312681036122939986e+02
2.113464962291704108e+00 5.311016568137390550e+02
2.113564984296544935e+00 5.309344828772813116e+02
2.113665006301386207e+00 5.307666325071905931e+02
2.113765028306227478e+00 5.305981563145751352e+02
2.113865050311068305e+00 5.304291047967458326e+02
2.113965072315909133e+00 5.302595283167943307e+02
2.114065094320750404e+00 5.300894770834045175e+02
2.114165116325591676e+00 5.299190011309008241e+02
2.114265138330432503e+00 5.297481502995418623e+02
2.114365160335273774e+00 5.295769742160771330e+02
2.114465182340114602e+00 5.294055222745631681e+02
2.114565204344955873e+00 5.292338436174645722e+02
2.114665226349796701e+00 5.290619871170307533e+02
2.114765248354637972e+00 5.288900013569750627e+02
2.114865270359478799e+00 5.287179346144502006e+02
2.114965292364320071e+00 5.285458348423362622e+02
2.115065314369161342e+00 5.283737496518477883e+02
2.115165336374002170e+00 5.282017262954664147e+02
2.115265358378843441e+00 5.280298116502088988e+02
2.115365380383684268e+00 5.278580522012334768e+02
2.115465402388525096e+00 5.276864940257984244e+02
2.115565424393366367e+00 5.275151827775733864e+02
2.115665446398207639e+00 5.273441636713157550e+02
2.115765468403048466e+00 5.271734814679092551e+02
2.115865490407889737e+00 5.270031804597855398e+02
2.115965512412731009e+00 5.268333044567190200e+02
2.116065534417571392e+00 5.266638967720114124e+02
2.116165556422412664e+00 5.264950002090660064e+02
2.116265578427253935e+00 5.263266570483592659e+02
2.116365600432094762e+00 5.261589090348145419e+02
2.116465622436936034e+00 5.259917973655769856e+02
2.116565644441777305e+00 5.258253626782045558e+02
2.116665666446618133e+00 5.256596450392707993e+02
2.116765688451458960e+00 5.254946839333819071e+02
2.116865710456300231e+00 5.253305182526181625e+02
2.116965732461141059e+00 5.251671862864026252e+02
2.117065754465982330e+00 5.250047257117904564e+02
2.117165776470823602e+00 5.248431735841918453e+02
2.117265798475664429e+00 5.246825663285291057e+02
2.117365820480505700e+00 5.245229397308206671e+02
2.117465842485346528e+00 5.243643289302107178e+02
2.117565864490187799e+00 5.242067684114290387e+02
2.117665886495028627e+00 5.240502919976913745e+02
2.117765908499869898e+00 5.238949328440413638e+02
2.117865930504710725e+00 5.237407234311297088e+02
2.117965952509551997e+00 5.235876955594372930e+02
2.118065974514393268e+00 5.234358803439353096e+02
2.118165996519234096e+00 5.232853082091885426e+02
2.118266018524074923e+00 5.231360088848974783e+02
2.118366040528916194e+00 5.229880114018804989e+02
2.118466062533757466e+00 5.228413440884929742e+02
2.118566084538598293e+00 5.226960345674857535e+02
2.118666106543439565e+00 5.225521097532958947e+02
2.118766128548280392e+00 5.224095958497731544e+02
2.118866150553121663e+00 5.222685183483376932e+02
2.118966172557962491e+00 5.221289020265664931e+02
2.119066194562803762e+00 5.219907709472056467e+02
2.119166216567644589e+00 5.218541484576076073e+02
2.119266238572485861e+00 5.217190571895883977e+02
2.119366260577327132e+00 5.215855190597010278e+02
2.119466282582167960e+00 5.214535552699245500e+02
2.119566304587008787e+00 5.213231863087585225e+02
2.119666326591850058e+00 5.211944319527293601e+02
2.119766348596691330e+00 5.210673112682891315e+02
2.119866370601532157e+00 5.209418426141205600e+02
2.119966392606373429e+00 5.208180436438246943e+02
2.120066414611214256e+00 5.206959313090005708e+02
2.120166436616055083e+00 5.205755218627043632e+02
2.120266458620896355e+00 5.204568308632848357e+02
2.120366480625737626e+00 5.203398731785864584e+02
2.120466502630578454e+00 5.202246629905207556e+02
2.120566524635419725e+00 5.201112137999900824e+02
2.120666546640260997e+00 5.199995384321691745e+02
2.120766568645101824e+00 5.198896490421251428e+02
2.120866590649942651e+00 5.197815571207806897e+02
2.120966612654783923e+00 5.196752735012059929e+02
2.121066634659624750e+00 5.195708083652360756e+02
2.121166656664466021e+00 5.194681712504029747e+02
2.121266678669307293e+00 5.193673710571795255e+02
2.121366700674148120e+00 5.192684160565245293e+02
2.121466722678989392e+00 5.191713138977200970e+02
2.121566744683830219e+00 5.190760716164963924e+02
2.121666766688671046e+00 5.189826956434355907e+02
2.121766788693512318e+00 5.188911918126418641e+02
2.121866810698353589e+00 5.188015653706762578e+02
2.121966832703194417e+00 5.187138209857425863e+02
2.122066854708035688e+00 5.186279627571182118e+02
2.122166876712876959e+00 5.185439942248177658e+02
2.122266898717717787e+00 5.184619183794886794e+02
2.122366920722558614e+00 5.183817376725173744e+02
2.122466942727399886e+00 5.183034540263511190e+02
2.122566964732240713e+00 5.182270688450136049e+02
2.122666986737081984e+00 5.181525830248135662e+02
2.122767008741923256e+00 5.180799969652318850e+02
2.122867030746764083e+00 5.180093105799841169e+02
2.122967052751604911e+00 5.179405233082394489e+02
2.123067074756446182e+00 5.178736341259966593e+02
2.123167096761287453e+00 5.178086415575995716e+02
2.123267118766128281e+00 5.177455436873891585e+02
2.123367140770969552e+00 5.176843381714741099e+02
2.123467162775810380e+00 5.176250222496209972e+02
2.123567184780651651e+00 5.175675927572431192e+02
2.123667206785492478e+00 5.175120461374860952e+02
2.123767228790333750e+00 5.174583784534005417e+02
2.123867250795174577e+00 5.174065854001821663e+02
2.123967272800015849e+00 5.173566623174850747e+02
2.124067294804857120e+00 5.173086042017851014e+02
2.124167316809697947e+00 5.172624057187888411e+02
2.124267338814539219e+00 5.172180612158814483e+02
2.124367360819380046e+00 5.171755647345955822e+02
2.124467382824221318e+00 5.171349100231017246e+02
2.124567404829062145e+00 5.170960905487005448e+02
2.124667426833903416e+00 5.170590995103161731e+02
2.124767448838744244e+00 5.170239298509735590e+02
2.124867470843585515e+00 5.169905742702557063e+02
2.124967492848426787e+00 5.169590252367287349e+02
2.125067514853267614e+00 5.169292750003272658e+02
2.125167536858108441e+00 5.169013156046883068e+02
2.125267558862949713e+00 5.168751388994256786e+02
2.125367580867790984e+00 5.168507365523366843e+02
2.125467602872631812e+00 5.168281000615336325e+02
2.125567624877473083e+00 5.168072207674825904e+02
2.125667646882313910e+00 5.167880898649549408e+02
2.125767668887154738e+00 5.167706984148696847e+02
2.125867690891996009e+00 5.167550373560251273e+02
2.125967712896837281e+00 5.167410975167097149e+02
2.126067734901678108e+00 5.167288696261834957e+02
2.126167756906519379e+00 5.167183443260231570e+02
2.126267778911360651e+00 5.167095121813194964e+02
2.126367800916201478e+00 5.167023636917243721e+02
2.126467822921042305e+00 5.166968893023355349e+02
2.126567844925883577e+00 5.166930794144104766e+02
2.126667866930724404e+00 5.166909243959097466e+02
2.126767888935565676e+00 5.166904145918520044e+02
2.126867910940406947e+00 5.166915403344786455e+02
2.126967932945247775e+00 5.166942919532273208e+02
2.127067954950089046e+00 5.166986597844926337e+02
2.127167976954929873e+00 5.167046341811847014e+02
2.127267998959770701e+00 5.167122055220628454e+02
2.127368020964611972e+00 5.167213642208541842e+02
2.127468042969453244e+00 5.167321007351363278e+02
2.127568064974294071e+00 5.167444055749888321e+02
2.127668086979135342e+00 5.167582693114029553e+02
2.127768108983976614e+00 5.167736825844485793e+02
2.127868130988817441e+00 5.167906361111843125e+02
2.127968152993658268e+00 5.168091206933169133e+02
2.128068174998499540e+00 5.168291272245994605e+02
2.128168197003340367e+00 5.168506466979600873e+02
2.128268219008181639e+00 5.168736702123669602e+02
2.128368241013022910e+00 5.168981889794179096e+02
2.128468263017863737e+00 5.169241943296487989e+02
2.128568285022704565e+00 5.169516777185676801e+02
2.128668307027545836e+00 5.169806307323999590e+02
2.128768329032387108e+00 5.170110450935464996e+02
2.128868351037227935e+00 5.170429126657542156e+02
2.128968373042069206e+00 5.170762254589900522e+02
2.129068395046910034e+00 5.171109756340219974e+02
2.129168417051751305e+00 5.171471555067005283e+02
2.129268439056592133e+00 5.171847575519439033e+02
2.129368461061433404e+00 5.172237744074162720e+02
2.129468483066274231e+00 5.172641988769090631e+02
2.129568505071115503e+00 5.173060239334150765e+02
2.129668527075956774e+00 5.173492427218960756e+02
2.129768549080797602e+00 5.173938485617495644e+02
2.129868571085638873e+00 5.174398349489637212e+02
2.129968593090479700e+00 5.174871955579701535e+02
2.130068615095320972e+00 5.175359242431870825e+02
2.130168637100161799e+00 5.175860150402569388e+02
2.130268659105003071e+00 5.176374621669802991e+02
2.130368681109843898e+00 5.176902600239407093e+02
2.130468703114685169e+00 5.177444031948271004e+02
2.130568725119526441e+00 5.177998864464561848e+02
2.130668747124367268e+00 5.178567047284864202e+02
2.130768769129208096e+00 5.179148531728393436e+02
2.130868791134049367e+00 5.179743270928161110e+02
2.130968813138890638e+00 5.180351219819236803e+02
2.131068835143731466e+00 5.180972335124045003e+02
2.131168857148572737e+00 5.181606575334742502e+02
2.131268879153413565e+00 5.182253900692752495e+02
2.131368901158254392e+00 5.182914273165395116e+02
2.131468923163095663e+00 5.183587656419747418e+02
2.131568945167936935e+00 5.184274015793672561e+02
2.131668967172777762e+00 5.184973318264170530e+02
2.131768989177619034e+00 5.185685532412920793e+02
2.131869011182460305e+00 5.186410628389246540e+02
2.131969033187301132e+00 5.187148577870428880e+02
2.132069055192141960e+00 5.187899354019403972e+02
2.132169077196983231e+00 5.188662931439989734e+02
2.132269099201824059e+00 5.189439286129593256e+02
2.132369121206665330e+00 5.190228395429491002e+02
2.132469143211506601e+00 5.191030237972744317e+02
2.132569165216347429e+00 5.191844793629780952e+02
2.132669187221188700e+00 5.192672043451716490e+02
2.132769209226029528e+00 5.193511969611472523e+02
2.132869231230870355e+00 5.194364555342726817e+02
2.132969253235711626e+00 5.195229784876822805e+02
2.133069275240552898e+00 5.196107643377611112e+02
2.133169297245393725e+00 5.196998116874352718e+02
2.133269319250234997e+00 5.197901192192751978e+02
2.133369341255076268e+00 5.198816856884131994e+02
2.133469363259917095e+00 5.199745099152903549e+02
2.133569385264757923e+00 5.200685907782295772e+02
2.133669407269599194e+00 5.201639272058541792e+02
2.133769429274440022e+00 5.202605181693495524e+02
2.133869451279281293e+00 5.203583626745779611e+02
2.133969473284122564e+00 5.204574597540578225e+02
2.134069495288963392e+00 5.205578084588112233e+02
2.134169517293804219e+00 5.206594078500872911e+02
2.134269539298645491e+00 5.207622569909738104e+02
2.134369561303486762e+00 5.208663549378982225e+02
2.134469583308327589e+00 5.209717007320346056e+02
2.134569605313168861e+00 5.210782933906139078e+02
2.134669627318009688e+00 5.211861318981576687e+02
2.134769649322850960e+00 5.212952151976345476e+02
2.134869671327691787e+00 5.214055421815533009e+02
2.134969693332533058e+00 5.215171116829974380e+02
2.135069715337373886e+00 5.216299224666098553e+02
2.135169737342215157e+00 5.217439732195415445e+02
2.135269759347056429e+00 5.218592625423646041e+02
2.135369781351897256e+00 5.219757889399658097e+02
2.135469803356738527e+00 5.220935508124237003e+02
2.135569825361579355e+00 5.222125464458799797e+02
2.135669847366420626e+00 5.223327740034184217e+02
2.135769869371261453e+00 5.224542315159483223e+02
2.135869891376102725e+00 5.225769168731172840e+02
2.135969913380943552e+00 5.227008278142444624e+02
2.136069935385784824e+00 5.228259619192994023e+02
2.136169957390625651e+00 5.229523165999219145e+02
2.136269979395466923e+00 5.230798890905014105e+02
2.136370001400307750e+00 5.232086764393169460e+02
2.136470023405149021e+00 5.233386754997520711e+02
2.136570045409990293e+00 5.234698829215890328e+02
2.136670067414831120e+00 5.236022951423935865e+02
2.136770089419672392e+00 5.237359083789984879e+02
2.136870111424513219e+00 5.238707186190885068e+02
2.136970133429354046e+00 5.240067216129074268e+02
2.137070155434195318e+00 5.241439128650831663e+02
2.137170177439036589e+00 5.242822876265838659e+02
2.137270199443877416e+00 5.244218408868125607e+02
2.137370221448718688e+00 5.245625673658543064e+02
2.137470243453559959e+00 5.247044615068697340e+02
2.137570265458400343e+00 5.248475174686578839e+02
2.137670287463241614e+00 5.249917291183858197e+02
2.137770309468082885e+00 5.251370900244979794e+02
2.137870331472923713e+00 5.252835934498073129e+02
2.137970353477764984e+00 5.254312323447860535e+02
2.138070375482606256e+00 5.255799993410485058e+02
2.138170397487447083e+00 5.257298867450418811e+02
2.138270419492287910e+00 5.258808865319576853e+02
2.138370441497129182e+00 5.260329903398531997e+02
2.138470463501970009e+00 5.261861894640085211e+02
2.138570485506811281e+00 5.263404748515101801e+02
2.138670507511652552e+00 5.264958370960806633e+02
2.138770529516493379e+00 5.266522664331491796e+02
2.138870551521334651e+00 5.268097527351728786e+02
2.138970573526175478e+00 5.269682855072231860e+02
2.139070595531016750e+00 5.271278538828254341e+02
2.139170617535857577e+00 5.272884466200722500e+02
2.139270639540698848e+00 5.274500520980114970e+02
2.139370661545539676e+00 5.276126583133079748e+02
2.139470683550380947e+00 5.277762528771929738e+02
2.139570705555222219e+00 5.279408230126989565e+02
2.139670727560063046e+00 5.281063555521889157e+02
2.139770749564903873e+00 5.282728369351796118e+02
2.139870771569745145e+00 5.284402532064683555e+02
2.139970793574586416e+00 5.286085900145598089e+02
2.140070815579427244e+00 5.287778326104061080e+02
2.140170837584268515e+00 5.289479658464546219e+02
2.140270859589109342e+00 5.291189741760090328e+02
2.140370881593950614e+00 5.292908416529120359e+02
2.140470903598791441e+00 5.294635519315409056e+02
2.140570925603632713e+00 5.296370882671343452e+02
2.140670947608473540e+00 5.298114335164353861e+02
2.140770969613314811e+00 5.299865701386665933e+02
2.140870991618156083e+00 5.301624801968271186e+02
2.140971013622996910e+00 5.303391453593280858e+02
2.141071035627837738e+00 5.305165469019490274e+02
2.141171057632679009e+00 5.306946657101349274e+02
2.141271079637520280e+00 5.308734822816189762e+02
2.141371101642361108e+00 5.310529767293822943e+02
2.141471123647202379e+00 5.312331287849463024e+02
2.141571145652043207e+00 5.314139178019960355e+02
2.141671167656884478e+00 5.315953227603423557e+02
2.141771189661725305e+00 5.317773222702089697e+02
2.141871211666566577e+00 5.319598945768582325e+02
2.141971233671407404e+00 5.321430175655423227e+02
2.142071255676248676e+00 5.323266687667914994e+02
2.142171277681089947e+00 5.325108253620221603e+02
2.142271299685930774e+00 5.326954641894764109e+02
2.142371321690772046e+00 5.328805617504858674e+02
2.142471343695612873e+00 5.330660942160586728e+02
2.142571365700453700e+00 5.332520374337814246e+02
2.142671387705294972e+00 5.334383669350477248e+02
2.142771409710136243e+00 5.336250579425898195e+02
2.142871431714977071e+00 5.338120853783329949e+02
2.142971453719818342e+00 5.339994238715474921e+02
2.143071475724659614e+00 5.341870477673123787e+02
2.143171497729499997e+00 5.343749311352753466e+02
2.143271519734341268e+00 5.345630477787113932e+02
2.143371541739182540e+00 5.347513712438708353e+02
2.143471563744023367e+00 5.349398748296166559e+02
2.143571585748864639e+00 5.351285315973452725e+02
2.143671607753705910e+00 5.353173143811808359e+02
2.143771629758546737e+00 5.355061957984469245e+02
2.143871651763387565e+00 5.356951482604010835e+02
2.143971673768228836e+00 5.358841439832341393e+02
2.144071695773069663e+00 5.360731549993206499e+02
2.144171717777910935e+00 5.362621531687240122e+02
2.144271739782752206e+00 5.364511101909397439e+02
2.144371761787593034e+00 5.366399976168784178e+02
2.144471783792434305e+00 5.368287868610758551e+02
2.144571805797275132e+00 5.370174492141318296e+02
2.144671827802116404e+00 5.372059558553559100e+02
2.144771849806957231e+00 5.373942778656315795e+02
2.144871871811798503e+00 5.375823862404743068e+02
2.144971893816639330e+00 5.377702519032891360e+02
2.145071915821480601e+00 5.379578457188090397e+02
2.145171937826321873e+00 5.381451385067173305e+02
2.145271959831162700e+00 5.383321010554336681e+02
2.145371981836003528e+00 5.385187041360675266e+02
2.145472003840844799e+00 5.387049185165218432e+02
2.145572025845686071e+00 5.388907149757438901e+02
2.145672047850526898e+00 5.390760643181090472e+02
2.145772069855368169e+00 5.392609373879375880e+02
2.145872091860208997e+00 5.394453050841237882e+02
2.145972113865050268e+00 5.396291383748801991e+02
2.146072135869891095e+00 5.398124083125788957e+02
2.146172157874732367e+00 5.399950860486844704e+02
2.146272179879573194e+00 5.401771428487708135e+02
2.146372201884414466e+00 5.403585501076083801e+02
2.146472223889255737e+00 5.405392793643137566e+02
2.146572245894096564e+00 5.407193023175544795e+02
2.146672267898937392e+00 5.408985908407966008e+02
2.146772289903778663e+00 5.410771169975853354e+02
2.146872311908619935e+00 5.412548530568490150e+02
2.146972333913460762e+00 5.414317715082186169e+02
2.147072355918302033e+00 5.416078450773509303e+02
2.147172377923142861e+00 5.417830467412441067e+02
2.147272399927984132e+00 5.419573497435386571e+02
2.147372421932824960e+00 5.421307276097915064e+02
2.147472443937666231e+00 5.423031541627144634e+02
2.147572465942507058e+00 5.424746035373651694e+02
2.147672487947348330e+00 5.426450501962818862e+02
2.147772509952189601e+00 5.428144689445520044e+02
2.147872531957030429e+00 5.429828349448017661e+02
2.147972553961871700e+00 5.431501237321022018e+02
2.148072575966712527e+00 5.433163112287749072e+02
2.148172597971553355e+00 5.434813737590906157e+02
2.148272619976394626e+00 5.436452880638514671e+02
2.148372641981235898e+00 5.438080313148465166e+02
2.148472663986076725e+00 5.439695811291672953e+02
2.148572685990917996e+00 5.441299155833766008e+02
2.148672707995759268e+00 5.442890132275208543e+02
2.148772730000599651e+00 5.444468530989757937e+02
2.148872752005440923e+00 5.446034147361107216e+02
2.148972774010282194e+00 5.447586781917713097e+02
2.149072796015123021e+00 5.449126240465632236e+02
2.149172818019964293e+00 5.450652334219281556e+02
2.149272840024805564e+00 5.452164879930085135e+02
2.149372862029646392e+00 5.453663700012842810e+02
2.149472884034487219e+00 5.455148622669747738e+02
2.149572906039328490e+00 5.456619482012001754e+02
2.149672928044169318e+00 5.458076118178884144e+02
2.149772950049010589e+00 5.459518377454226084e+02
2.149872972053851861e+00 5.460946112380157729e+02
2.149972994058692688e+00 5.462359181868098403e+02
2.150073016063533959e+00 5.463757451306855728e+02
2.150173038068374787e+00 5.465140792667796177e+02
2.150273060073216058e+00 5.466509084606917668e+02
2.150373082078056886e+00 5.467862212563903768e+02
2.150473104082898157e+00 5.469200068857871884e+02
2.150573126087738984e+00 5.470522552779945045e+02
2.150673148092580256e+00 5.471829570682396024e+02
2.150773170097421527e+00 5.473121036064446798e+02
2.150873192102262355e+00 5.474396869654507327e+02
2.150973214107103182e+00 5.475656999488893462e+02
2.151073236111944453e+00 5.476901360986908003e+02
2.151173258116785725e+00 5.478129897022220121e+02
2.151273280121626552e+00 5.479342557990473779e+02
2.151373302126467824e+00 5.480539301873127442e+02
2.151473324131308651e+00 5.481720094297343167e+02
2.151573346136149922e+00 5.482884908591997828e+02
2.151673368140990750e+00 5.484033725839688032e+02
2.151773390145832021e+00 5.485166534924659345e+02
2.151873412150672848e+00 5.486283332576705334e+02
2.151973434155514120e+00 5.487384123410873826e+02
2.152073456160355391e+00 5.488468919963015651e+02
2.152173478165196219e+00 5.489537742721082623e+02
2.152273500170037046e+00 5.490590620152195243e+02
2.152373522174878318e+00 5.491627588725364149e+02
2.152473544179719589e+00 5.492648692929878962e+02
2.152573566184560416e+00 5.493653985289364527e+02
2.152673588189401688e+00 5.494643526371362441e+02
2.152773610194242515e+00 5.495617384792549274e+02
2.152873632199083787e+00 5.496575637219452801e+02
2.152973654203924614e+00 5.497518368364721937e+02
2.153073676208765885e+00 5.498445670978863973e+02
2.153173698213606713e+00 5.499357645837510518e+02
2.153273720218447984e+00 5.500254401724141644e+02
2.153373742223289256e+00 5.501136055408235279e+02
2.153473764228130083e+00 5.502002731618929374e+02
2.153573786232970910e+00 5.502854563014083169e+02
2.153673808237812182e+00 5.503691690144829636e+02
2.153773830242653009e+00 5.504514261415520195e+02
2.153873852247494280e+00 5.505322433039156067e+02
2.153973874252335552e+00 5.506116368988271006e+02
2.154073896257176379e+00 5.506896240941247243e+02
2.154173918262017651e+00 5.507662228224153296e+02
2.154273940266858478e+00 5.508414517748032040e+02
2.154373962271699305e+00 5.509153303941682225e+02
2.154473984276540577e+00 5.509878788680036905e+02
2.154574006281381848e+00 5.510591181207996669e+02
2.154674028286222676e+00 5.511290698059913211e+02
2.154774050291063947e+00 5.511977562974618650e+02
2.154874072295905219e+00 5.512652006806122245e+02
2.154974094300746046e+00 5.513314267429979054e+02
2.155074116305586873e+00 5.513964589645324850e+02
2.155174138310428145e+00 5.514603225072680743e+02
2.155274160315268972e+00 5.515230432047551403e+02
2.155374182320110243e+00 5.515846475509835045e+02
2.155474204324951515e+00 5.516451626889115687e+02
2.155574226329792342e+00 5.517046163985893372e+02
2.155674248334633170e+00 5.517630370848762595e+02
2.155774270339474441e+00 5.518204537647677626e+02
2.155874292344315712e+00 5.518768960543301318e+02
2.155974314349156540e+00 5.519323941552440829e+02
2.156074336353997811e+00 5.519869788409816920e+02
2.156174358358838639e+00 5.520406814426013398e+02
2.156274380363679910e+00 5.520935338341863599e+02
2.156374402368520737e+00 5.521455684179172749e+02
2.156474424373362009e+00 5.521968181088027450e+02
2.156574446378202836e+00 5.522473163190614969e+02
2.156674468383044108e+00 5.522970969421725158e+02
2.156774490387885379e+00 5.523461943365936122e+02
2.156874512392726206e+00 5.523946433091682593e+02
2.156974534397567478e+00 5.524424790982169498e+02
2.157074556402408305e+00 5.524897373563279643e+02
2.157174578407249577e+00 5.525364541328541463e+02
2.157274600412090404e+00 5.525826658561318254e+02
2.157374622416931675e+00 5.526284093154151833e+02
2.157474644421772503e+00 5.526737216425547103e+02
2.157574666426613774e+00 5.527186402934178204e+02
2.157674688431455046e+00 5.527632030290573084e+02
2.157774710436295873e+00 5.528074478966585730e+02
2.157874732441136700e+00 5.528514132102435497e+02
2.157974754445977972e+00 5.528951375311772836e+02
2.158074776450819243e+00 5.529386596484571328e+02
2.158174798455660071e+00 5.529820185588126833e+02
2.158274820460501342e+00 5.530252534466246743e+02
2.158374842465342169e+00 5.530684036636700966e+02
2.158474864470182997e+00 5.531115087087060829e+02
2.158574886475024268e+00 5.531546082069027079e+02
2.158674908479865540e+00 5.531977418891430034e+02
2.158774930484706367e+00 5.532409495711870022e+02
2.158874952489547638e+00 5.532842711327309644e+02
2.158974974494388910e+00 5.533277464963533703e+02
2.159074996499229737e+00 5.533714156063772407e+02
2.159175018504070565e+00 5.534153184076434400e+02
2.159275040508911836e+00 5.534594948242271357e+02
2.159375062513752663e+00 5.535039847380852507e+02
2.159475084518593935e+00 5.535488279676735601e+02
2.159575106523435206e+00 5.535940642465177461e+02
2.159675128528276034e+00 5.536397332017785402e+02
2.159775150533117305e+00 5.536858743327969705e+02
2.159875172537958132e+00 5.537325269896551845e+02
2.159975194542798960e+00 5.537797303517451155e+02
2.160075216547640231e+00 5.538275234063743255e+02
2.160175238552481503e+00 5.538759449274078861e+02
2.160275260557322330e+00 5.539250334539673304e+02
2.160375282562163601e+00 5.539748272691958846e+02
2.160475304567004873e+00 5.540253643790994147e+02
2.160575326571845700e+00 5.540766824914858262e+02
2.160675348576686527e+00 5.541288189949980278e+02
2.160775370581527799e+00 5.541818109382701323e+02
2.160875392586368626e+00 5.542356950092097350e+02
2.160975414591209898e+00 5.542905075144171860e+02
2.161075436596051169e+00 5.543462843587633415e+02
2.161175458600891996e+00 5.544030610251235203e+02
2.161275480605732824e+00 5.544608725542962020e+02
2.161375502610574095e+00 5.545197535251039653e+02
2.161475524615415367e+00 5.545797380346982663e+02
2.161575546620256194e+00 5.546408596790718093e+02
2.161675568625097466e+00 5.547031515338021563e+02
2.161775590629938293e+00 5.547666461350211193e+02
2.161875612634779564e+00 5.548313754606380144e+02
2.161975634639620392e+00 5.548973709118190527e+02
2.162075656644461663e+00 5.549646632947331000e+02
2.162175678649302490e+00 5.550332828025814251e+02
2.162275700654143762e+00 5.551032589979174645e+02
2.162375722658985033e+00 5.551746207952671739e+02
2.162475744663825861e+00 5.552473964440657710e+02
2.162575766668667132e+00 5.553216135119123464e+02
2.162675788673507959e+00 5.553972988681639436e+02
2.162775810678349231e+00 5.554744786678689934e+02
2.162875832683190058e+00 5.555531783360549980e+02
2.162975854688031330e+00 5.556334225523828536e+02
2.163075876692872157e+00 5.557152352361698604e+02
2.163175898697713428e+00 5.557986395317991537e+02
2.163275920702554700e+00 5.558836577945174895e+02
2.163375942707395527e+00 5.559703115766354813e+02
2.163475964712236355e+00 5.560586216141379055e+02
2.163575986717077626e+00 5.561486078137104414e+02
2.163676008721918897e+00 5.562402892401937606e+02
2.163776030726759725e+00 5.563336841044703078e+02
2.163876052731600996e+00 5.564288097517976439e+02
2.163976074736441824e+00 5.565256826505859635e+02
2.164076096741282651e+00 5.566243183816372948e+02
2.164176118746123922e+00 5.567247316278480866e+02
2.164276140750965194e+00 5.568269361643795037e+02
2.164376162755806021e+00 5.569309448493136188e+02
2.164476184760647293e+00 5.570367696147843617e+02
2.164576206765488564e+00 5.571444214586058479e+02
2.164676228770329391e+00 5.572539104363929710e+02
2.164776250775170219e+00 5.573652456541854008e+02
2.164876272780011490e+00 5.574784352615765783e+02
2.164976294784852318e+00 5.575934864453578257e+02
2.165076316789693589e+00 5.577104054236749562e+02
2.165176338794534860e+00 5.578291974407077305e+02
2.165276360799375688e+00 5.579498667618746595e+02
2.165376382804216959e+00 5.580724166695646318e+02
2.165476404809057787e+00 5.581968494594025287e+02
2.165576426813898614e+00 5.583231664370503040e+02
2.165676448818739885e+00 5.584513679155407999e+02
2.165776470823581157e+00 5.585814532131636270e+02
2.165876492828421984e+00 5.587134206518803694e+02
2.165976514833263256e+00 5.588472675562957193e+02
2.166076536838104527e+00 5.589829902531694188e+02
2.166176558842945354e+00 5.591205840714765145e+02
2.166276580847786182e+00 5.592600433430199018e+02
2.166376602852627453e+00 5.594013614035854971e+02
2.166476624857468281e+00 5.595445305946568624e+02
2.166576646862309552e+00 5.596895422656692745e+02
2.166676668867150823e+00 5.598363867768217688e+02
2.166776690871991651e+00 5.599850535024332885e+02
2.166876712876832478e+00 5.601355308348499875e+02
2.166976734881673750e+00 5.602878061888957291e+02
2.167076756886515021e+00 5.604418660068728286e+02
2.167176778891355848e+00 5.605976957640992850e+02
2.167276800896197120e+00 5.607552799749960286e+02
2.167376822901037947e+00 5.609146021997046319e+02
2.167476844905879219e+00 5.610756450512449192e+02
2.167576866910720046e+00 5.612383902032070182e+02
2.167676888915561317e+00 5.614028183979646656e+02
2.167776910920402145e+00 5.615689094554278427e+02
2.167876932925243416e+00 5.617366422822992718e+02
2.167976954930084688e+00 5.619059948818652401e+02
2.168076976934925515e+00 5.620769443642849410e+02
2.168176998939766786e+00 5.622494669573951569e+02
2.168277020944607614e+00 5.624235380180136872e+02
2.168377042949448885e+00 5.625991320437408376e+02
2.168477064954289713e+00 5.627762226852483991e+02
2.168577086959130984e+00 5.629547827590574798e+02
2.168677108963971811e+00 5.631347842607881375e+02
2.168777130968813083e+00 5.633161983788864973e+02
2.168877152973654354e+00 5.634989955088115039e+02
2.168977174978495182e+00 5.636831452676783556e+02
2.169077196983336009e+00 5.638686165093541831e+02
2.169177218988177280e+00 5.640553773399906277e+02
2.169277240993018552e+00 5.642433951339924079e+02
2.169377262997859379e+00 5.644326365504105070e+02
2.169477285002700651e+00 5.646230675497479297e+02
2.169577307007541478e+00 5.648146534111778010e+02
2.169677329012382305e+00 5.650073587501536849e+02
2.169777351017223577e+00 5.652011475364128046e+02
2.169877373022064848e+00 5.653959831123555659e+02
2.169977395026905675e+00 5.655918282117951321e+02
2.170077417031746947e+00 5.657886449790646566e+02
2.170177439036588218e+00 5.659863949884747854e+02
2.170277461041429046e+00 5.661850392641077860e+02
2.170377483046269873e+00 5.663845382999385265e+02
2.170477505051111144e+00 5.665848520802732082e+02
2.170577527055951972e+00 5.667859401004930078e+02
2.170677549060793243e+00 5.669877613880900071e+02
2.170777571065634515e+00 5.671902745239867727e+02
2.170877593070475342e+00 5.673934376641260542e+02
2.170977615075316169e+00 5.675972085613191211e+02
2.171077637080157441e+00 5.678015445873434146e+02
2.171177659084998268e+00 5.680064027552672314e+02
2.171277681089839540e+00 5.682117397420082625e+02
2.171377703094680811e+00 5.684175119110891501e+02
2.171477725099521638e+00 5.686236753356009785e+02
2.171577747104362910e+00 5.688301858213435480e+02
2.171677769109203737e+00 5.690369989301415217e+02
2.171777791114045009e+00 5.692440700033173471e+02
2.171877813118885836e+00 5.694513541853089009e+02
2.171977835123727107e+00 5.696588064474228759e+02
2.172077857128567935e+00 5.698663816117032184e+02
2.172177879133409206e+00 5.700740343749052954e+02
2.172277901138250478e+00 5.702817193325671496e+02
2.172377923143091305e+00 5.704893910031536279e+02
2.172477945147932132e+00 5.706970038522692903e+02
2.172577967152773404e+00 5.709045123169214548e+02
2.172677989157614675e+00 5.711118708298215552e+02
2.172778011162455503e+00 5.713190338437113951e+02
2.172878033167296774e+00 5.715259558556981574e+02
2.172978055172137601e+00 5.717325914315894124e+02
2.173078077176978873e+00 5.719388952302078906e+02
2.173178099181819700e+00 5.721448220276756729e+02
2.173278121186660972e+00 5.723503267416589324e+02
2.173378143191501799e+00 5.725553644555476467e+02
2.173478165196343070e+00 5.727598904425680075e+02
2.173578187201184342e+00 5.729638601898092247e+02
2.173678209206025169e+00 5.731672294221477841e+02
2.173778231210865997e+00 5.733699541260623391e+02
2.173878253215707268e+00 5.735719905733227506e+02
2.173978275220548539e+00 5.737732953445362227e+02
2.174078297225389367e+00 5.739738253525421214e+02
2.174178319230230638e+00 5.741735378656405828e+02
2.174278341235071466e+00 5.743723905306418374e+02
2.174378363239912737e+00 5.745703413957196517e+02
2.174478385244753564e+00 5.747673489330641132e+02
2.174578407249594836e+00 5.749633720613105652e+02
2.174678429254435663e+00 5.751583701677375302e+02
2.174778451259276935e+00 5.753523031302249819e+02
2.174878473264118206e+00 5.755451313389485222e+02
2.174978495268959033e+00 5.757368157178100319e+02
2.175078517273800305e+00 5.759273177455836503e+02
2.175178539278641132e+00 5.761165994767677603e+02
2.175278561283481960e+00 5.763046235621337701e+02
2.175378583288323231e+00 5.764913532689538442e+02
2.175478605293164502e+00 5.766767525009016708e+02
2.175578627298005330e+00 5.768607858176115997e+02
2.175678649302846601e+00 5.770434184538862610e+02
2.175778671307687873e+00 5.772246163385410682e+02
2.175878693312528256e+00 5.774043461128751460e+02
2.175978715317369527e+00 5.775825751487564048e+02
2.176078737322210799e+00 5.777592715663129184e+02
2.176178759327051626e+00 5.779344042512193482e+02
2.176278781331892898e+00 5.781079428715659105e+02
2.176378803336734169e+00 5.782798578943054508e+02
2.176478825341574996e+00 5.784501206012654393e+02
2.176578847346415824e+00 5.786187031047116989e+02
2.176678869351257095e+00 5.787855783624672767e+02
2.176778891356097922e+00 5.789507201925626987e+02
2.176878913360939194e+00 5.791141032874198800e+02
2.176978935365780465e+00 5.792757032275580968e+02
2.177078957370621293e+00 5.794354964948100815e+02
2.177178979375462564e+00 5.795934604850473306e+02
2.177279001380303391e+00 5.797495735204050789e+02
2.177379023385144663e+00 5.799038148609945438e+02
2.177479045389985490e+00 5.800561647161031260e+02
2.177579067394826762e+00 5.802066042548729001e+02
2.177679089399667589e+00 5.803551156164473923e+02
2.177779111404508861e+00 5.805016819195909648e+02
2.177879133409350132e+00 5.806462872717592063e+02
2.177979155414190959e+00 5.807889167776338581e+02
2.178079177419031787e+00 5.809295565471022655e+02
2.178179199423873058e+00 5.810681937026803325e+02
2.178279221428714330e+00 5.812048163863837544e+02
2.178379243433555157e+00 5.813394137660271781e+02
2.178479265438396428e+00 5.814719760409636820e+02
2.178579287443237256e+00 5.816024944472494553e+02
2.178679309448078527e+00 5.817309612622384520e+02
2.178779331452919354e+00 5.818573698085940578e+02
2.178879353457760626e+00 5.819817144577331192e+02
2.178979375462601453e+00 5.821039906326795972e+02
2.179079397467442725e+00 5.822241948103388722e+02
2.179179419472283996e+00 5.823423245231902001e+02
2.179279441477124823e+00 5.824583783603914071e+02
2.179379463481965651e+00 5.825723559683007124e+02
2.179479485486806922e+00 5.826842580504077205e+02
2.179579507491648194e+00 5.827940863666830182e+02
2.179679529496489021e+00 5.829018437323402395e+02
2.179779551501330292e+00 5.830075340160103678e+02
2.179879573506171120e+00 5.831111621373356684e+02
2.179979595511012391e+00 5.832127340639772228e+02
2.180079617515853219e+00 5.833122568080433439e+02
2.180179639520694490e+00 5.834097384219346623e+02
2.180279661525535317e+00 5.835051879936194155e+02
2.180379683530376589e+00 5.835986156413217714e+02
2.180479705535217860e+00 5.836900325076528588e+02
2.180579727540058688e+00 5.837794507531621093e+02
2.180679749544899959e+00 5.838668835493283495e+02
2.180779771549740786e+00 5.839523450709907593e+02
2.180879793554581614e+00 5.840358504882204898e+02
2.180979815559422885e+00 5.841174159576436296e+02
2.181079837564264157e+00 5.841970586132113112e+02
2.181179859569104984e+00 5.842747965564356036e+02
2.181279881573946255e+00 5.843506488460818673e+02
2.181379903578787527e+00 5.844246354873357632e+02
2.181479925583627910e+00 5.844967774204424131e+02
2.181579947588469182e+00 5.845670965088276034e+02
2.181679969593310453e+00 5.846356155267121721e+02
2.181779991598151280e+00 5.847023581462160564e+02
2.181880013602992552e+00 5.847673489239701894e+02
2.181980035607833823e+00 5.848306132872357921e+02
2.182080057612674651e+00 5.848921775195452710e+02
2.182180079617515478e+00 5.849520687458676775e+02
2.182280101622356749e+00 5.850103149173110069e+02
2.182380123627197577e+00 5.850669447953690678e+02
2.182480145632038848e+00 5.851219879357170157e+02
2.182580167636880120e+00 5.851754746715771489e+02
2.182680189641720947e+00 5.852274360966475797e+02
2.182780211646562218e+00 5.852779040476189039e+02
2.182880233651403046e+00 5.853269110862804609e+02
2.182980255656244317e+00 5.853744904812266441e+02
2.183080277661085145e+00 5.854206761891789483e+02
2.183180299665926416e+00 5.854655028359267135e+02
2.183280321670767243e+00 5.855090056969048646e+02
2.183380343675608515e+00 5.855512206774163815e+02
2.183480365680449786e+00 5.855921842925076817e+02
2.183580387685290614e+00 5.856319336465172682e+02
2.183680409690131441e+00 5.856705064122984368e+02
2.183780431694972712e+00 5.857079408101353692e+02
2.183880453699813984e+00 5.857442755863639832e+02
2.183980475704654811e+00 5.857795499917073130e+02
2.184080497709496083e+00 5.858138037593366789e+02
2.184180519714336910e+00 5.858470770826780836e+02
2.184280541719178181e+00 5.858794105929656553e+02
2.184380563724019009e+00 5.859108453365683999e+02
2.184480585728860280e+00 5.859414227520892382e+02
2.184580607733701108e+00 5.859711846472611114e+02
2.184680629738542379e+00 5.860001731756447043e+02
2.184780651743383650e+00 5.860284308131474518e+02
2.184880673748224478e+00 5.860560003343737208e+02
2.184980695753065305e+00 5.860829247888194686e+02
2.185080717757906577e+00 5.861092474769293403e+02
2.185180739762747848e+00 5.861350119260205247e+02
2.185280761767588675e+00 5.861602618661020188e+02
2.185380783772429947e+00 5.861850412055860033e+02
2.185480805777270774e+00 5.862093940069159999e+02
2.185580827782112046e+00 5.862333644621280655e+02
2.185680849786952873e+00 5.862569968683460502e+02
2.185780871791794144e+00 5.862803356032400188e+02
2.185880893796634972e+00 5.863034251004496582e+02
2.185980915801476243e+00 5.863263098249954055e+02
2.186080937806317515e+00 5.863490342486852569e+02
2.186180959811158342e+00 5.863716428255347637e+02
2.186280981815999613e+00 5.863941799672139723e+02
2.186381003820840441e+00 5.864166900185324494e+02
2.186481025825681268e+00 5.864392172329798996e+02
2.186581047830522539e+00 5.864618057483343136e+02
2.186681069835363811e+00 5.864844995623508339e+02
2.186781091840204638e+00 5.865073425085493000e+02
2.186881113845045910e+00 5.865303782321078643e+02
2.186981135849887181e+00 5.865536501658793895e+02
2.187081157854727564e+00 5.865772015065496134e+02
2.187181179859568836e+00 5.866010751909386727e+02
2.187281201864410107e+00 5.866253138724702012e+02
2.187381223869250935e+00 5.866499598978175527e+02
2.187481245874092206e+00 5.866750552837377199e+02
2.187581267878933478e+00 5.867006416941106863e+02
2.187681289883774305e+00 5.867267604171925086e+02
2.187781311888615132e+00 5.867534523431008893e+02
2.187881333893456404e+00 5.867807579415386954e+02
2.187981355898297231e+00 5.868087172397749782e+02
2.188081377903138502e+00 5.868373698008887231e+02
2.188181399907979774e+00 5.868667547022957933e+02
2.188281421912820601e+00 5.868969105145635012e+02
2.188381443917661429e+00 5.869278752805303156e+02
2.188481465922502700e+00 5.869596864947366157e+02
2.188581487927343971e+00 5.869923810831866149e+02
2.188681509932184799e+00 5.870259953834415683e+02
2.188781531937026070e+00 5.870605651250667734e+02
2.188881553941866898e+00 5.870961254104331601e+02
2.188981575946708169e+00 5.871327106958932518e+02
2.189081597951548996e+00 5.871703547733343385e+02
2.189181619956390268e+00 5.872090907521233021e+02
2.189281641961231095e+00 5.872489510414524148e+02
2.189381663966072367e+00 5.872899673330941823e+02
2.189481685970913638e+00 5.873321705845794440e+02
2.189581707975754465e+00 5.873755910027995242e+02
2.189681729980595737e+00 5.874202580280502843e+02
2.189781751985436564e+00 5.874662003185229651e+02
2.189881773990277836e+00 5.875134457352478421e+02
2.189981795995118663e+00 5.875620213275028618e+02
2.190081817999959934e+00 5.876119533186961235e+02
2.190181840004800762e+00 5.876632670927209574e+02
2.190281862009642033e+00 5.877159871808057687e+02
2.190381884014483305e+00 5.877701372488490961e+02
2.190481906019324132e+00 5.878257400852627370e+02
2.190581928024164959e+00 5.878828175893139587e+02
2.190681950029006231e+00 5.879413907599860067e+02
2.190781972033847502e+00 5.880014796853569123e+02
2.190881994038688330e+00 5.880631035324972800e+02
2.190982016043529601e+00 5.881262805379053589e+02
2.191082038048370428e+00 5.881910279984708723e+02
2.191182060053211256e+00 5.882573622629780630e+02
2.191282082058052527e+00 5.883252987241563687e+02
2.191382104062893799e+00 5.883948518112734973e+02
2.191482126067734626e+00 5.884660349832817019e+02
2.191582148072575897e+00 5.885388607225181659e+02
2.191682170077417169e+00 5.886133405289613165e+02
2.191782192082257996e+00 5.886894849150482969e+02
2.191882214087098824e+00 5.887673034010549600e+02
2.191982236091940095e+00 5.888468045110366802e+02
2.192082258096780922e+00 5.889279957693404413e+02
2.192182280101622194e+00 5.890108836976776274e+02
2.192282302106463465e+00 5.890954738127694554e+02
2.192382324111304293e+00 5.891817706245614090e+02
2.192482346116145564e+00 5.892697776350009917e+02
2.192582368120986391e+00 5.893594973373915309e+02
2.192682390125827219e+00 5.894509312163110053e+02
2.192782412130668490e+00 5.895440797480970332e+02
2.192882434135509762e+00 5.896389424019052967e+02
2.192982456140350589e+00 5.897355176413233266e+02
2.193082478145191860e+00 5.898338029265589739e+02
2.193182500150033132e+00 5.899337947171824226e+02
2.193282522154873959e+00 5.900354884754326577e+02
2.193382544159714787e+00 5.901388786700783839e+02
2.193482566164556058e+00 5.902439587808316901e+02
2.193582588169396885e+00 5.903507213033167318e+02
2.193682610174238157e+00 5.904591577545782002e+02
2.193782632179079428e+00 5.905692586791395797e+02
2.193882654183920256e+00 5.906810136555939152e+02
2.193982676188761083e+00 5.907944113037364104e+02
2.194082698193602354e+00 5.909094392922129373e+02
2.194182720198443626e+00 5.910260843467074210e+02
2.194282742203284453e+00 5.911443322586358136e+02
2.194382764208125725e+00 5.912641678943591614e+02
2.194482786212966552e+00 5.913855752048995100e+02
2.194582808217807823e+00 5.915085372361569398e+02
2.194682830222648651e+00 5.916330361396205717e+02
2.194782852227489922e+00 5.917590531835617185e+02
2.194882874232330749e+00 5.918865687647131608e+02
2.194982896237172021e+00 5.920155624204118112e+02
2.195082918242013292e+00 5.921460128412095401e+02
2.195182940246854120e+00 5.922778978839397723e+02
2.195282962251695391e+00 5.924111945852266672e+02
2.195382984256536218e+00 5.925458791754390404e+02
2.195483006261377490e+00 5.926819270930684525e+02
2.195583028266218317e+00 5.928193129995302115e+02
2.195683050271059589e+00 5.929580107943759231e+02
2.195783072275900416e+00 5.930979936309058758e+02
2.195883094280741687e+00 5.932392339321754662e+02
2.195983116285582959e+00 5.933817034073808827e+02
2.196083138290423786e+00 5.935253730686190465e+02
2.196183160295264614e+00 5.936702132480045293e+02
2.196283182300105885e+00 5.938161936151426517e+02
2.196383204304947157e+00 5.939632831949378442e+02
2.196483226309787984e+00 5.941114503857297677e+02
2.196583248314629255e+00 5.942606629777520766e+02
2.196683270319470083e+00 5.944108881718909743e+02
2.196783292324310910e+00 5.945620925987418559e+02
2.196883314329152181e+00 5.947142423379489173e+02
2.196983336333993453e+00 5.948673029378113597e+02
2.197083358338834280e+00 5.950212394351564171e+02
2.197183380343675552e+00 5.951760163754471478e+02
2.197283402348516823e+00 5.953315978331372662e+02
2.197383424353357650e+00 5.954879474322381157e+02
2.197483446358198478e+00 5.956450283671017587e+02
2.197583468363039749e+00 5.958028034233958579e+02
2.197683490367880577e+00 5.959612349992651161e+02
2.197783512372721848e+00 5.961202851266640437e+02
2.197883534377563119e+00 5.962799154928459302e+02
2.197983556382403947e+00 5.964400874620005197e+02
2.198083578387245218e+00 5.966007620970208336e+02
2.198183600392086046e+00 5.967619001813880004e+02
2.198283622396926873e+00 5.969234622411680675e+02
2.198383644401768144e+00 5.970854085670963514e+02
2.198483666406609416e+00 5.972476992367376170e+02
2.198583688411450243e+00 5.974102941367240192e+02
2.198683710416291515e+00 5.975731529850349943e+02
2.198783732421132786e+00 5.977362353533225132e+02
2.198883754425973613e+00 5.978995006892563424e+02
2.198983776430814441e+00 5.980629083388917024e+02
2.199083798435655712e+00 5.982264175690287402e+02
2.199183820440496540e+00 5.983899875895591549e+02
2.199283842445337811e+00 5.985535775757899728e+02
2.199383864450179082e+00 5.987171466907219610e+02
2.199483886455019910e+00 5.988806541072773371e+02
2.199583908459860737e+00 5.990440590304615398e+02
2.199683930464702009e+00 5.992073207194439419e+02
2.199783952469543280e+00 5.993703985095442022e+02
2.199883974474384107e+00 5.995332518341170953e+02
2.199983996479225379e+00 5.996958402463168341e+02
2.200084018484066206e+00 5.998581234407286047e+02
2.200184040488907478e+00 6.000200612748582216e+02
2.200284062493748305e+00 6.001816137904645529e+02
2.200384084498589576e+00 6.003427412347259633e+02
2.200484106503430404e+00 6.005034040812183775e+02
2.200584128508271675e+00 6.006635630507093992e+02
2.200684150513112947e+00 6.008231791317383568e+02
2.200784172517953774e+00 6.009822136009852329e+02
2.200884194522795045e+00 6.011406280434068776e+02
2.200984216527635873e+00 6.012983843721351604e+02
2.201084238532477144e+00 6.014554448481200097e+02
2.201184260537317972e+00 6.016117720995124500e+02
2.201284282542159243e+00 6.017673291407705847e+02
2.201384304547000070e+00 6.019220793914804517e+02
2.201484326551841342e+00 6.020759866948834542e+02
2.201584348556682613e+00 6.022290153360927434e+02
2.201684370561523441e+00 6.023811300599975311e+02
2.201784392566364268e+00 6.025322960888375974e+02
2.201884414571205539e+00 6.026824791394402610e+02
2.201984436576046811e+00 6.028316454401136752e+02
2.202084458580887638e+00 6.029797617471808735e+02
2.202184480585728910e+00 6.031267953611531993e+02
2.202284502590569737e+00 6.032727141425231139e+02
2.202384524595410564e+00 6.034174865271812678e+02
2.202484546600251836e+00 6.035610815414378294e+02
2.202584568605093107e+00 6.037034688166447722e+02
2.202684590609933935e+00 6.038446186034129823e+02
2.202784612614775206e+00 6.039845017854103162e+02
2.202884634619616477e+00 6.041230898927433373e+02
2.202984656624457305e+00 6.042603551149015857e+02
2.203084678629298132e+00 6.043962703132737033e+02
2.203184700634139404e+00 6.045308090332118809e+02
2.203284722638980231e+00 6.046639455156532676e+02
2.203384744643821502e+00 6.047956547082842462e+02
2.203484766648662774e+00 6.049259122762416609e+02
2.203584788653503601e+00 6.050546946123503176e+02
2.203684810658344873e+00 6.051819788468857269e+02
2.203784832663185700e+00 6.053077428568622054e+02
2.203884854668026527e+00 6.054319652748417866e+02
2.203984876672867799e+00 6.055546254972515499e+02
2.204084898677709070e+00 6.056757036922190309e+02
2.204184920682549897e+00 6.057951808069101389e+02
2.204284942687391169e+00 6.059130385743721945e+02
2.204384964692232440e+00 6.060292595198783374e+02
2.204484986697073268e+00 6.061438269667692111e+02
2.204585008701914095e+00 6.062567250417927198e+02
2.204685030706755366e+00 6.063679386799333315e+02
2.204785052711596194e+00 6.064774536287372939e+02
2.204885074716437465e+00 6.065852564521296699e+02
2.204985096721278737e+00 6.066913345337152350e+02
2.205085118726119564e+00 6.067956760795742639e+02
2.205185140730960391e+00 6.068982701205430885e+02
2.205285162735801663e+00 6.069991065139860211e+02
2.205385184740642934e+00 6.070981759450518211e+02
2.205485206745483762e+00 6.071954699274243694e+02
2.205585228750325033e+00 6.072909808035595915e+02
2.205685250755165860e+00 6.073847017444131779e+02
2.205785272760007132e+00 6.074766267486630795e+02
2.205885294764847959e+00 6.075667506414268928e+02
2.205985316769689231e+00 6.076550690724729975e+02
2.206085338774530058e+00 6.077415785139319269e+02
2.206185360779371329e+00 6.078262762575113811e+02
2.206285382784212601e+00 6.079091604112117011e+02
2.206385404789053428e+00 6.079902298955540800e+02
2.206485426793894256e+00 6.080694844393162839e+02
2.206585448798735527e+00 6.081469245747880450e+02
2.206685470803576798e+00 6.082225516325431727e+02
2.206785492808417626e+00 6.082963677357383858e+02
2.206885514813258897e+00 6.083683757939387533e+02
2.206985536818099725e+00 6.084385794964819070e+02
2.207085558822940996e+00 6.085069833053778439e+02
2.207185580827781823e+00 6.085735924477564822e+02
2.207285602832623095e+00 6.086384129078668366e+02
2.207385624837463922e+00 6.087014514186330416e+02
2.207485646842305194e+00 6.087627154527770017e+02
2.207585668847146465e+00 6.088222132135068705e+02
2.207685690851987292e+00 6.088799536247917104e+02
2.207785712856828564e+00 6.089359463212146011e+02
2.207885734861669391e+00 6.089902016374217055e+02
2.207985756866510219e+00 6.090427305971739997e+02
2.208085778871351490e+00 6.090935449020024635e+02
2.208185800876192761e+00 6.091426569194879903e+02
2.208285822881033589e+00 6.091900796711604471e+02
2.208385844885874860e+00 6.092358268200351858e+02
2.208485866890716132e+00 6.092799126577928064e+02
2.208585888895556515e+00 6.093223520916112648e+02
2.208685910900397786e+00 6.093631606306603317e+02
2.208785932905239058e+00 6.094023543722664726e+02
2.208885954910079885e+00 6.094399499877597464e+02
2.208985976914921157e+00 6.094759647080132936e+02
2.209085998919762428e+00 6.095104163086824656e+02
2.209186020924603255e+00 6.095433230951539372e+02
2.209286042929444083e+00 6.095747038872234498e+02
2.209386064934285354e+00 6.096045780035008192e+02
2.209486086939126182e+00 6.096329652455575570e+02
2.209586108943967453e+00 6.096598858818369990e+02
2.209686130948808724e+00 6.096853606313222826e+02
2.209786152953649552e+00 6.097094106469818371e+02
2.209886174958490823e+00 6.097320574990110345e+02
2.209986196963331651e+00 6.097533231578636332e+02
2.210086218968172922e+00 6.097732299771013231e+02
2.210186240973013749e+00 6.097918006760652361e+02
2.210286262977855021e+00 6.098090583223790873e+02
2.210386284982695848e+00 6.098250263143027041e+02
2.210486306987537120e+00 6.098397283629443564e+02
2.210586328992378391e+00 6.098531884743410956e+02
2.210686350997219218e+00 6.098654309314248394e+02
2.210786373002060046e+00 6.098764802758811356e+02
2.210886395006901317e+00 6.098863612899172040e+02
2.210986417011742589e+00 6.098950989779507381e+02
2.211086439016583416e+00 6.099027185482233335e+02
2.211186461021424687e+00 6.099092453943700320e+02
2.211286483026265515e+00 6.099147050769338421e+02
2.211386505031106786e+00 6.099191233048561571e+02
2.211486527035947613e+00 6.099225259169450055e+02
2.211586549040788885e+00 6.099249388633401168e+02
2.211686571045629712e+00 6.099263881869796933e+02
2.211786593050470984e+00 6.099269000050890099e+02
2.211886615055312255e+00 6.099265004906976628e+02
2.211986637060153083e+00 6.099252158541995641e+02
2.212086659064993910e+00 6.099230723249696666e+02
2.212186681069835181e+00 6.099200961330452628e+02
2.212286703074676453e+00 6.099163134908890243e+02
2.212386725079517280e+00 6.099117505752406032e+02
2.212486747084358552e+00 6.099064335090743043e+02
2.212586769089199379e+00 6.099003883436706701e+02
2.212686791094040650e+00 6.098936410408130087e+02
2.212786813098881478e+00 6.098862174551269391e+02
2.212886835103722749e+00 6.098781433165642056e+02
2.212986857108563576e+00 6.098694442130565676e+02
2.213086879113404848e+00 6.098601455733312378e+02
2.213186901118246119e+00 6.098502726499209530e+02
2.213286923123086947e+00 6.098398505023651524e+02
2.213386945127928218e+00 6.098289039806161327e+02
2.213486967132769045e+00 6.098174577086642785e+02
2.213586989137609873e+00 6.098055360683902109e+02
2.213687011142451144e+00 6.097931631836568158e+02
2.213787033147292416e+00 6.097803629046452443e+02
2.213887055152133243e+00 6.097671587924573942e+02
2.213987077156974514e+00 6.097535741039766890e+02
2.214087099161815786e+00 6.097396317770185306e+02
2.214187121166656169e+00 6.097253544157598526e+02
2.214287143171497441e+00 6.097107642764696038e+02
2.214387165176338712e+00 6.096958832535481179e+02
2.214487187181179539e+00 6.096807328658767346e+02
2.214587209186020811e+00 6.096653342434962042e+02
2.214687231190862082e+00 6.096497081146159189e+02
2.214787253195702910e+00 6.096338747929646615e+02
2.214887275200543737e+00 6.096178541654895753e+02
2.214987297205385008e+00 6.096016656804163176e+02
2.215087319210225836e+00 6.095853283356661905e+02
2.215187341215067107e+00 6.095688606676533254e+02
2.215287363219908379e+00 6.095522807404558989e+02
2.215387385224749206e+00 6.095356061353750192e+02
2.215487407229590477e+00 6.095188539408845827e+02
2.215587429234431305e+00 6.095020407429815350e+02
2.215687451239272576e+00 6.094851826159417669e+02
2.215787473244113404e+00 6.094682951134831228e+02
2.215887495248954675e+00 6.094513932603472313e+02
2.215987517253795502e+00 6.094344915443009540e+02
2.216087539258636774e+00 6.094176039085662069e+02
2.216187561263478045e+00 6.094007437446784934e+02
2.216287583268318873e+00 6.093839238857788132e+02
2.216387605273159700e+00 6.093671566003509952e+02
2.216487627278000971e+00 6.093504535863949059e+02
2.216587649282842243e+00 6.093338259660499716e+02
2.216687671287683070e+00 6.093172842806676499e+02
2.216787693292524342e+00 6.093008384863348965e+02
2.216887715297365169e+00 6.092844979498540852e+02
2.216987737302206440e+00 6.092682714451799484e+02
2.217087759307047268e+00 6.092521671503144489e+02
2.217187781311888539e+00 6.092361926446625375e+02
2.217287803316729367e+00 6.092203549068526627e+02
2.217387825321570638e+00 6.092046603130150970e+02
2.217487847326411909e+00 6.091891146355311548e+02
2.217587869331252737e+00 6.091737230422374978e+02
2.217687891336093564e+00 6.091584900961037192e+02
2.217787913340934836e+00 6.091434197553674039e+02
2.217887935345776107e+00 6.091285153741375780e+02
2.217987957350616934e+00 6.091137797034560890e+02
2.218087979355458206e+00 6.090992148928226015e+02
2.218188001360299033e+00 6.090848224921824112e+02
2.218288023365140305e+00 6.090706034543660508e+02
2.218388045369981132e+00 6.090565581379916011e+02
2.218488067374822403e+00 6.090426863108152702e+02
2.218588089379663231e+00 6.090289871535377415e+02
2.218688111384504502e+00 6.090154592640556075e+02
2.218788133389345774e+00 6.090021006621577726e+02
2.218888155394186601e+00 6.089889087946636437e+02
2.218988177399027872e+00 6.089758805409993556e+02
2.219088199403868700e+00 6.089630122192049839e+02
2.219188221408709527e+00 6.089502995923734261e+02
2.219288243413550799e+00 6.089377378755085601e+02
2.219388265418392070e+00 6.089253217428085918e+02
2.219488287423232897e+00 6.089130453353558323e+02
2.219588309428074169e+00 6.089009022692193867e+02
2.219688331432915440e+00 6.088888856439592701e+02
2.219788353437755823e+00 6.088769880515230852e+02
2.219888375442597095e+00 6.088652015855368518e+02
2.219988397447438366e+00 6.088535178509740717e+02
2.220088419452279194e+00 6.088419279742034860e+02
2.220188441457120465e+00 6.088304226134067676e+02
2.220288463461961737e+00 6.088189919693508045e+02
2.220388485466802564e+00 6.088076257965244622e+02
2.220488507471643391e+00 6.087963134146066295e+02
2.220588529476484663e+00 6.087850437202874900e+02
2.220688551481325490e+00 6.087738051994064108e+02
2.220788573486166761e+00 6.087625859394149757e+02
2.220888595491008033e+00 6.087513736421541353e+02
2.220988617495848860e+00 6.087401556369283071e+02
2.221088639500690132e+00 6.087289188938782445e+02
2.221188661505530959e+00 6.087176500376343711e+02
2.221288683510372231e+00 6.087063353612443279e+02
2.221388705515213058e+00 6.086949608403682532e+02
2.221488727520054329e+00 6.086835121477249686e+02
2.221588749524895157e+00 6.086719746677829335e+02
2.221688771529736428e+00 6.086603335116874405e+02
2.221788793534577700e+00 6.086485735324077950e+02
2.221888815539418527e+00 6.086366793400992492e+02
2.221988837544259354e+00 6.086246353176671846e+02
2.222088859549100626e+00 6.086124256365210385e+02
2.222188881553941897e+00 6.086000342725067185e+02
2.222288903558782724e+00 6.085874450220111385e+02
2.222388925563623996e+00 6.085746415182213696e+02
2.222488947568464823e+00 6.085616072475282863e+02
2.222588969573306095e+00 6.085483255660694795e+02
2.222688991578146922e+00 6.085347797163880159e+02
2.222789013582988193e+00 6.085209528442074998e+02
2.222889035587829021e+00 6.085068280153019487e+02
2.222989057592670292e+00 6.084923882324561646e+02
2.223089079597511564e+00 6.084776164524984097e+02
2.223189101602352391e+00 6.084624956033960643e+02
2.223289123607193218e+00 6.084470086014054004e+02
2.223389145612034490e+00 6.084311383682554606e+02
2.223489167616875761e+00 6.084148678483622916e+02
2.223589189621716589e+00 6.083981800260542059e+02
2.223689211626557860e+00 6.083810579428015899e+02
2.223789233631398687e+00 6.083634847144370497e+02
2.223889255636239515e+00 6.083454435483496354e+02
2.223989277641080786e+00 6.083269177606473477e+02
2.224089299645922058e+00 6.083078907932723496e+02
2.224189321650762885e+00 6.082883462310564937e+02
2.224289343655604156e+00 6.082682678187067040e+02
2.224389365660445428e+00 6.082476394777037285e+02
2.224489387665286255e+00 6.082264453231099424e+02
2.224589409670127083e+00 6.082046696802655106e+02
2.224689431674968354e+00 6.081822971013667711e+02
2.224789453679809181e+00 6.081593123819139919e+02
2.224889475684650453e+00 6.081357005770140631e+02
2.224989497689491724e+00 6.081114470175268707e+02
2.225089519694332552e+00 6.080865373260478464e+02
2.225189541699173823e+00 6.080609574327097562e+02
2.225289563704014650e+00 6.080346935907962234e+02
2.225389585708855478e+00 6.080077323921507286e+02
2.225489607713696749e+00 6.079800607823773362e+02
2.225589629718538021e+00 6.079516660758134776e+02
2.225689651723378848e+00 6.079225359702701326e+02
2.225789673728220119e+00 6.078926585615271279e+02
2.225889695733061391e+00 6.078620223575691170e+02
2.225989717737902218e+00 6.078306162925582612e+02
2.226089739742743046e+00 6.077984297405250800e+02
2.226189761747584317e+00 6.077654525287775868e+02
2.226289783752425144e+00 6.077316749510074487e+02
2.226389805757266416e+00 6.076970877800908966e+02
2.226489827762107687e+00 6.076616822805737002e+02
2.226589849766948515e+00 6.076254502208269059e+02
2.226689871771789342e+00 6.075883838848692449e+02
2.226789893776630613e+00 6.075504760838412039e+02
2.226889915781471885e+00 6.075117201671311022e+02
2.226989937786312712e+00 6.074721100331303205e+02
2.227089959791153984e+00 6.074316401396246192e+02
2.227189981795994811e+00 6.073903055138058562e+02
2.227290003800836082e+00 6.073481017618897795e+02
2.227390025805676910e+00 6.073050250783489901e+02
2.227490047810518181e+00 6.072610722547366322e+02
2.227590069815359008e+00 6.072162406881038805e+02
2.227690091820200280e+00 6.071705283889978091e+02
2.227790113825041551e+00 6.071239339890407791e+02
2.227890135829882379e+00 6.070764567480795222e+02
2.227990157834723650e+00 6.070280965608932320e+02
2.228090179839564478e+00 6.069788539634685094e+02
2.228190201844405749e+00 6.069287301388199012e+02
2.228290223849246576e+00 6.068777269223627400e+02
2.228390245854087848e+00 6.068258468068298725e+02
2.228490267858928675e+00 6.067730929467182932e+02
2.228590289863769947e+00 6.067194691622786422e+02
2.228690311868611218e+00 6.066649799430294934e+02
2.228790333873452045e+00 6.066096304507975674e+02
2.228890355878292873e+00 6.065534265222802333e+02
2.228990377883134144e+00 6.064963746711270005e+02
2.229090399887975416e+00 6.064384820895364783e+02
2.229190421892816243e+00 6.063797566493674367e+02
2.229290443897657514e+00 6.063202069027609014e+02
2.229390465902498342e+00 6.062598420822693015e+02
2.229490487907339169e+00 6.061986721004946048e+02
2.229590509912180440e+00 6.061367075492339609e+02
2.229690531917021712e+00 6.060739596981281920e+02
2.229790553921862539e+00 6.060104404928129043e+02
2.229890575926703811e+00 6.059461625525790396e+02
2.229990597931545082e+00 6.058811391675328650e+02
2.230090619936385909e+00 6.058153842952601735e+02
2.230190641941226737e+00 6.057489125569984481e+02
2.230290663946068008e+00 6.056817392333111911e+02
2.230390685950908836e+00 6.056138802592724915e+02
2.230490707955750107e+00 6.055453522191546654e+02
2.230590729960591379e+00 6.054761723406344345e+02
2.230690751965432206e+00 6.054063584885043383e+02
2.230790773970273477e+00 6.053359291579023420e+02
2.230890795975114305e+00 6.052649034670596393e+02
2.230990817979955132e+00 6.051933011495682422e+02
2.231090839984796403e+00 6.051211425461751787e+02
2.231190861989637675e+00 6.050484485961017072e+02
2.231290883994478502e+00 6.049752408278997109e+02
2.231390905999319774e+00 6.049015413498401585e+02
2.231490928004161045e+00 6.048273728398468165e+02
2.231590950009001872e+00 6.047527585349745323e+02
2.231690972013842700e+00 6.046777222204403870e+02
2.231790994018683971e+00 6.046022882182141984e+02
2.231891016023524799e+00 6.045264813751676911e+02
2.231991038028366070e+00 6.044503270507982506e+02
2.232091060033207341e+00 6.043738511045276027e+02
2.232191082038048169e+00 6.042970798825842849e+02
2.232291104042888996e+00 6.042200402044732073e+02
2.232391126047730268e+00 6.041427593490473100e+02
2.232491148052571539e+00 6.040652650401813162e+02
2.232591170057412366e+00 6.039875854320599728e+02
2.232691192062253638e+00 6.039097490940878288e+02
2.232791214067094465e+00 6.038317849954280518e+02
2.232891236071935737e+00 6.037537224891802907e+02
2.232991258076776564e+00 6.036755912962056527e+02
2.233091280081617835e+00 6.035974214886098252e+02
2.233191302086458663e+00 6.035192434728893431e+02
2.233291324091299934e+00 6.034410879727573729e+02
2.233391346096141206e+00 6.033629860116516284e+02
2.233491368100982033e+00 6.032849688949413576e+02
2.233591390105823304e+00 6.032070681918391983e+02
2.233691412110664132e+00 6.031293157170275663e+02
2.233791434115505403e+00 6.030517435120181062e+02
2.233891456120346231e+00 6.029743838262431836e+02
2.233991478125187502e+00 6.028972690979024947e+02
2.234091500130028329e+00 6.028204319345670683e+02
2.234191522134869601e+00 6.027439050935580553e+02
2.234291544139710872e+00 6.026677214621098528e+02
2.234391566144551700e+00 6.025919140373268874e+02
2.234491588149392527e+00 6.025165159059511097e+02
2.234591610154233798e+00 6.024415602239502050e+02
2.234691632159075070e+00 6.023670801959357277e+02
2.234791654163915897e+00 6.022931090544292374e+02
2.234891676168757169e+00 6.022196800389847340e+02
2.234991698173597996e+00 6.021468263751825134e+02
2.235091720178438823e+00 6.020745812535055848e+02
2.235191742183280095e+00 6.020029778081122913e+02
2.235291764188121366e+00 6.019320490955185505e+02
2.235391786192962194e+00 6.018618280732060839e+02
2.235491808197803465e+00 6.017923475781565230e+02
2.235591830202644736e+00 6.017236403053462936e+02
2.235691852207485564e+00 6.016557387861962525e+02
2.235791874212326391e+00 6.015886753669996097e+02
2.235891896217167663e+00 6.015224821873376868e+02
2.235991918222008490e+00 6.014571911585024964e+02
2.236091940226849761e+00 6.013928339419278473e+02
2.236191962231691033e+00 6.013294419276595590e+02
2.236291984236531860e+00 6.012670462128616009e+02
2.236392006241373132e+00 6.012056775803843038e+02
2.236492028246213959e+00 6.011453664773977152e+02
2.236592050251054786e+00 6.010861429941169263e+02
2.236692072255896058e+00 6.010280368426190307e+02
2.236792094260737329e+00 6.009710773357718381e+02
2.236892116265578156e+00 6.009152933662919622e+02
2.236992138270419428e+00 6.008607133859356964e+02
2.237092160275260699e+00 6.008073653848468894e+02
2.237192182280101527e+00 6.007552768710645523e+02
2.237292204284942354e+00 6.007044748502157745e+02
2.237392226289783626e+00 6.006549858053928119e+02
2.237492248294624453e+00 6.006068356772412926e+02
2.237592270299465724e+00 6.005600498442640856e+02
2.237692292304306996e+00 6.005146531033550445e+02
2.237792314309147823e+00 6.004706696505786567e+02
2.237892336313988650e+00 6.004281230622030989e+02
2.237992358318829922e+00 6.003870362760096668e+02
2.238092380323671193e+00 6.003474315728740294e+02
2.238192402328512021e+00 6.003093305586489805e+02
2.238292424333353292e+00 6.002727541463508487e+02
2.238392446338194119e+00 6.002377225386644568e+02
2.238492468343035391e+00 6.002042552107799338e+02
2.238592490347876218e+00 6.001723708935662671e+02
2.238692512352717490e+00 6.001420875571077431e+02
2.238792534357558317e+00 6.001134223945969097e+02
2.238892556362399588e+00 6.000863918066055476e+02
2.238992578367240860e+00 6.000610113857480883e+02
2.239092600372081687e+00 6.000372959017356607e+02
2.239192622376922959e+00 6.000152592868435022e+02
2.239292644381763786e+00 5.999949146217954876e+02
2.239392666386605057e+00 5.999762741220782800e+02
2.239492688391445885e+00 5.999593491246938584e+02
2.239592710396287156e+00 5.999441500753611081e+02
2.239692732401127984e+00 5.999306865161751148e+02
2.239792754405969255e+00 5.999189670737351889e+02
2.239892776410810526e+00 5.999089994477466234e+02
2.239992798415651354e+00 5.999007904001069846e+02
